polygon
1
	5.122559E+00	4.538933E+01
	5.122588E+00	4.538961E+01
	5.122862E+00	4.539025E+01
	5.122953E+00	4.539038E+01
	5.123079E+00	4.539050E+01
	5.123208E+00	4.539057E+01
	5.123682E+00	4.539072E+01
	5.123842E+00	4.539079E+01
	5.124000E+00	4.539093E+01
	5.124049E+00	4.539095E+01
	5.124132E+00	4.539095E+01
	5.124299E+00	4.539090E+01
	5.124416E+00	4.539093E+01
	5.124528E+00	4.539101E+01
	5.124926E+00	4.539140E+01
	5.125786E+00	4.539205E+01
	5.125834E+00	4.539209E+01
	5.126192E+00	4.539226E+01
	5.126232E+00	4.539230E+01
	5.126393E+00	4.539244E+01
	5.126674E+00	4.539256E+01
	5.126840E+00	4.539260E+01
	5.127231E+00	4.539273E+01
	5.127681E+00	4.539292E+01
	5.127753E+00	4.539294E+01
	5.127868E+00	4.539296E+01
	5.128135E+00	4.539312E+01
	5.128237E+00	4.539315E+01
	5.128303E+00	4.539322E+01
	5.128311E+00	4.539327E+01
	5.128388E+00	4.539333E+01
	5.128686E+00	4.539349E+01
	5.128979E+00	4.539376E+01
	5.129118E+00	4.539384E+01
	5.129274E+00	4.539393E+01
	5.129527E+00	4.539412E+01
	5.129706E+00	4.539426E+01
	5.129898E+00	4.539437E+01
	5.130010E+00	4.539440E+01
	5.130218E+00	4.539440E+01
	5.130387E+00	4.539443E+01
	5.130602E+00	4.539449E+01
	5.130987E+00	4.539471E+01
	5.131239E+00	4.539477E+01
	5.131316E+00	4.539481E+01
	5.131467E+00	4.539491E+01
	5.131665E+00	4.539504E+01
	5.131862E+00	4.539527E+01
	5.131938E+00	4.539541E+01
	5.132138E+00	4.539592E+01
	5.132336E+00	4.539615E+01
	5.132388E+00	4.539626E+01
	5.132383E+00	4.539636E+01
	5.132436E+00	4.539653E+01
	5.132542E+00	4.539666E+01
	5.132681E+00	4.539673E+01
	5.132716E+00	4.539675E+01
	5.132754E+00	4.539704E+01
	5.132871E+00	4.539731E+01
	5.132874E+00	4.539744E+01
	5.132913E+00	4.539744E+01
	5.132990E+00	4.539743E+01
	5.133040E+00	4.539744E+01
	5.133864E+00	4.539806E+01
	5.134078E+00	4.539813E+01
	5.134991E+00	4.539898E+01
	5.136003E+00	4.539865E+01
	5.137234E+00	4.539847E+01
	5.137915E+00	4.539837E+01
	5.140902E+00	4.539794E+01
	5.142755E+00	4.539768E+01
	5.147249E+00	4.539704E+01
	5.147279E+00	4.539704E+01
	5.149328E+00	4.539928E+01
	5.150904E+00	4.539954E+01
	5.153580E+00	4.539982E+01
	5.155488E+00	4.540005E+01
	5.155728E+00	4.540007E+01
	5.156657E+00	4.540006E+01
	5.157089E+00	4.540008E+01
	5.157385E+00	4.540012E+01
	5.157752E+00	4.540019E+01
	5.159080E+00	4.540057E+01
	5.159808E+00	4.540070E+01
	5.161608E+00	4.540119E+01
	5.163568E+00	4.540168E+01
	5.165785E+00	4.540228E+01
	5.165990E+00	4.540237E+01
	5.166088E+00	4.540241E+01
	5.166957E+00	4.540281E+01
	5.167732E+00	4.540314E+01
	5.168059E+00	4.540334E+01
	5.168463E+00	4.540364E+01
	5.168759E+00	4.540351E+01
	5.168935E+00	4.540346E+01
	5.169961E+00	4.540330E+01
	5.170154E+00	4.540329E+01
	5.170995E+00	4.540336E+01
	5.171227E+00	4.540335E+01
	5.171446E+00	4.540338E+01
	5.171888E+00	4.540346E+01
	5.172023E+00	4.540347E+01
	5.172692E+00	4.540347E+01
	5.173079E+00	4.540358E+01
	5.173283E+00	4.540362E+01
	5.173414E+00	4.540362E+01
	5.174531E+00	4.540334E+01
	5.175043E+00	4.540326E+01
	5.175542E+00	4.540323E+01
	5.176416E+00	4.540324E+01
	5.176976E+00	4.540321E+01
	5.177112E+00	4.540319E+01
	5.177169E+00	4.540316E+01
	5.178042E+00	4.540226E+01
	5.178068E+00	4.540226E+01
	5.178338E+00	4.540244E+01
	5.178535E+00	4.540253E+01
	5.180486E+00	4.540330E+01
	5.181677E+00	4.540373E+01
	5.181719E+00	4.540371E+01
	5.184251E+00	4.540100E+01
	5.184281E+00	4.540099E+01
	5.186480E+00	4.540164E+01
	5.186423E+00	4.540101E+01
	5.186382E+00	4.540079E+01
	5.186315E+00	4.540061E+01
	5.185988E+00	4.540015E+01
	5.185293E+00	4.539931E+01
	5.185060E+00	4.539901E+01
	5.184727E+00	4.539851E+01
	5.184582E+00	4.539832E+01
	5.184421E+00	4.539819E+01
	5.184214E+00	4.539809E+01
	5.183023E+00	4.539767E+01
	5.182397E+00	4.539741E+01
	5.181965E+00	4.539718E+01
	5.181915E+00	4.539714E+01
	5.181828E+00	4.539691E+01
	5.181735E+00	4.539649E+01
	5.181721E+00	4.539615E+01
	5.181757E+00	4.539606E+01
	5.182280E+00	4.539547E+01
	5.183443E+00	4.539406E+01
	5.181771E+00	4.539306E+01
	5.180098E+00	4.539194E+01
	5.180013E+00	4.539187E+01
	5.179785E+00	4.539156E+01
	5.179498E+00	4.539124E+01
	5.179325E+00	4.539099E+01
	5.178992E+00	4.539060E+01
	5.178778E+00	4.539028E+01
	5.178201E+00	4.538926E+01
	5.177495E+00	4.538817E+01
	5.176938E+00	4.538743E+01
	5.176583E+00	4.538703E+01
	5.176207E+00	4.538646E+01
	5.175803E+00	4.538609E+01
	5.175681E+00	4.538594E+01
	5.175576E+00	4.538577E+01
	5.175355E+00	4.538522E+01
	5.175288E+00	4.538500E+01
	5.175271E+00	4.538483E+01
	5.175326E+00	4.538452E+01
	5.175506E+00	4.538402E+01
	5.175486E+00	4.538398E+01
	5.175081E+00	4.538395E+01
	5.174686E+00	4.538396E+01
	5.172891E+00	4.538410E+01
	5.172182E+00	4.538415E+01
	5.171888E+00	4.538418E+01
	5.171603E+00	4.538417E+01
	5.170937E+00	4.538416E+01
	5.170840E+00	4.538416E+01
	5.170495E+00	4.538417E+01
	5.170327E+00	4.538414E+01
	5.169961E+00	4.538408E+01
	5.170011E+00	4.538313E+01
	5.169986E+00	4.538284E+01
	5.169937E+00	4.538271E+01
	5.169704E+00	4.538228E+01
	5.169601E+00	4.538204E+01
	5.169471E+00	4.538165E+01
	5.169432E+00	4.538147E+01
	5.169391E+00	4.538099E+01
	5.169356E+00	4.538081E+01
	5.169278E+00	4.538063E+01
	5.169161E+00	4.538046E+01
	5.168539E+00	4.537980E+01
	5.168270E+00	4.537947E+01
	5.168217E+00	4.537945E+01
	5.167638E+00	4.537936E+01
	5.167577E+00	4.537930E+01
	5.167325E+00	4.537897E+01
	5.167066E+00	4.537845E+01
	5.164949E+00	4.537705E+01
	5.164878E+00	4.537706E+01
	5.164012E+00	4.537649E+01
	5.162577E+00	4.537541E+01
	5.162006E+00	4.537510E+01
	5.161397E+00	4.537472E+01
	5.161231E+00	4.537465E+01
	5.160781E+00	4.537432E+01
	5.160439E+00	4.537414E+01
	5.160299E+00	4.537411E+01
	5.160117E+00	4.537410E+01
	5.159940E+00	4.537413E+01
	5.159590E+00	4.537422E+01
	5.159408E+00	4.537425E+01
	5.159154E+00	4.537427E+01
	5.158645E+00	4.537419E+01
	5.158421E+00	4.537414E+01
	5.156921E+00	4.537369E+01
	5.156210E+00	4.537346E+01
	5.155966E+00	4.537341E+01
	5.155373E+00	4.537310E+01
	5.154890E+00	4.537287E+01
	5.154064E+00	4.537251E+01
	5.153758E+00	4.537235E+01
	5.152986E+00	4.537188E+01
	5.152436E+00	4.537157E+01
	5.150886E+00	4.537087E+01
	5.149942E+00	4.537055E+01
	5.149602E+00	4.537038E+01
	5.148444E+00	4.536964E+01
	5.148181E+00	4.536950E+01
	5.147896E+00	4.536937E+01
	5.147488E+00	4.536922E+01
	5.147419E+00	4.536922E+01
	5.147099E+00	4.536996E+01
	5.146970E+00	4.537020E+01
	5.146598E+00	4.537108E+01
	5.146314E+00	4.537160E+01
	5.145990E+00	4.537208E+01
	5.145922E+00	4.537212E+01
	5.145829E+00	4.537214E+01
	5.144918E+00	4.537212E+01
	5.143670E+00	4.537216E+01
	5.143546E+00	4.537226E+01
	5.143387E+00	4.537235E+01
	5.143217E+00	4.537241E+01
	5.143080E+00	4.537246E+01
	5.142887E+00	4.537251E+01
	5.141888E+00	4.537275E+01
	5.141560E+00	4.537283E+01
	5.140965E+00	4.537297E+01
	5.140862E+00	4.537300E+01
	5.140188E+00	4.537320E+01
	5.140037E+00	4.537328E+01
	5.139825E+00	4.537338E+01
	5.139641E+00	4.537347E+01
	5.139461E+00	4.537359E+01
	5.139191E+00	4.537377E+01
	5.139095E+00	4.537385E+01
	5.138816E+00	4.537418E+01
	5.138389E+00	4.537477E+01
	5.138319E+00	4.537483E+01
	5.138194E+00	4.537491E+01
	5.138053E+00	4.537497E+01
	5.137524E+00	4.537510E+01
	5.136478E+00	4.537526E+01
	5.136353E+00	4.537529E+01
	5.135853E+00	4.537551E+01
	5.135536E+00	4.537568E+01
	5.135349E+00	4.537571E+01
	5.134883E+00	4.537585E+01
	5.134302E+00	4.537597E+01
	5.134123E+00	4.537599E+01
	5.133832E+00	4.537610E+01
	5.133776E+00	4.537614E+01
	5.133706E+00	4.537623E+01
	5.133624E+00	4.537671E+01
	5.133540E+00	4.537691E+01
	5.133358E+00	4.537722E+01
	5.132957E+00	4.537777E+01
	5.132814E+00	4.537794E+01
	5.132777E+00	4.537793E+01
	5.132059E+00	4.537884E+01
	5.132076E+00	4.537891E+01
	5.131648E+00	4.537943E+01
	5.131478E+00	4.537964E+01
	5.131437E+00	4.537975E+01
	5.131265E+00	4.538011E+01
	5.131183E+00	4.538043E+01
	5.131018E+00	4.538086E+01
	5.130968E+00	4.538116E+01
	5.130850E+00	4.538139E+01
	5.130645E+00	4.538164E+01
	5.130092E+00	4.538206E+01
	5.129624E+00	4.538243E+01
	5.128775E+00	4.538312E+01
	5.128594E+00	4.538338E+01
	5.127926E+00	4.538452E+01
	5.127802E+00	4.538499E+01
	5.127507E+00	4.538596E+01
	5.127410E+00	4.538616E+01
	5.127252E+00	4.538634E+01
	5.125392E+00	4.538792E+01
	5.125247E+00	4.538801E+01
	5.125149E+00	4.538804E+01
	5.124506E+00	4.538820E+01
	5.124202E+00	4.538828E+01
	5.124113E+00	4.538832E+01
	5.123235E+00	4.538887E+01
	5.122598E+00	4.538929E+01
	5.122559E+00	4.538933E+01
END
END
