polygon
1
	2.914899E-01	4.557901E+01
	2.915125E-01	4.557901E+01
	2.936805E-01	4.558135E+01
	2.939746E-01	4.558175E+01
	2.939672E-01	4.558215E+01
	2.940976E-01	4.558262E+01
	2.942269E-01	4.558273E+01
	2.940404E-01	4.558283E+01
	2.935930E-01	4.558303E+01
	2.935972E-01	4.558305E+01
	2.937074E-01	4.558312E+01
	2.938552E-01	4.558313E+01
	2.942498E-01	4.558303E+01
	2.945369E-01	4.558294E+01
	2.946851E-01	4.558301E+01
	2.947931E-01	4.558308E+01
	2.948567E-01	4.558316E+01
	2.950113E-01	4.558342E+01
	2.960037E-01	4.558461E+01
	2.959936E-01	4.558463E+01
	2.953521E-01	4.558519E+01
	2.951093E-01	4.558543E+01
	2.943409E-01	4.558642E+01
	2.939921E-01	4.558694E+01
	2.939329E-01	4.558700E+01
	2.924680E-01	4.558784E+01
	2.920413E-01	4.558813E+01
	2.920083E-01	4.558818E+01
	2.920361E-01	4.558820E+01
	2.925274E-01	4.558844E+01
	2.923298E-01	4.558868E+01
	2.928807E-01	4.558878E+01
	2.930695E-01	4.558879E+01
	2.933080E-01	4.558889E+01
	2.934468E-01	4.558898E+01
	2.938593E-01	4.558936E+01
	2.940641E-01	4.558950E+01
	2.942370E-01	4.558958E+01
	2.943872E-01	4.558962E+01
	2.948374E-01	4.558969E+01
	2.951045E-01	4.558965E+01
	2.957568E-01	4.558962E+01
	2.958164E-01	4.558961E+01
	2.961125E-01	4.558960E+01
	2.963956E-01	4.558962E+01
	2.967233E-01	4.558966E+01
	2.968076E-01	4.558969E+01
	2.972026E-01	4.558987E+01
	2.972107E-01	4.558988E+01
	2.971046E-01	4.559001E+01
	2.971244E-01	4.559004E+01
	2.985715E-01	4.559153E+01
	2.985518E-01	4.559156E+01
	2.981819E-01	4.559181E+01
	2.980299E-01	4.559200E+01
	2.979937E-01	4.559211E+01
	2.975322E-01	4.559282E+01
	2.974477E-01	4.559305E+01
	2.973193E-01	4.559351E+01
	2.983282E-01	4.559359E+01
	2.999614E-01	4.559392E+01
	2.999028E-01	4.559436E+01
	3.007772E-01	4.559467E+01
	3.005834E-01	4.559535E+01
	3.000103E-01	4.559602E+01
	2.998252E-01	4.559646E+01
	2.990856E-01	4.559707E+01
	2.987275E-01	4.559763E+01
	2.993468E-01	4.559799E+01
	2.994614E-01	4.560060E+01
	3.000534E-01	4.560171E+01
	3.003946E-01	4.560275E+01
	2.999692E-01	4.560399E+01
	2.987328E-01	4.560548E+01
	2.977345E-01	4.560623E+01
	2.970306E-01	4.560674E+01
	2.967986E-01	4.560691E+01
	2.967312E-01	4.560714E+01
	2.967166E-01	4.560721E+01
	2.967043E-01	4.560725E+01
	2.967067E-01	4.560737E+01
	2.966825E-01	4.560750E+01
	2.966813E-01	4.560752E+01
	2.967237E-01	4.560752E+01
	2.967587E-01	4.560750E+01
	2.968388E-01	4.560746E+01
	2.968939E-01	4.560742E+01
	2.969346E-01	4.560740E+01
	2.969840E-01	4.560739E+01
	2.970169E-01	4.560739E+01
	2.970486E-01	4.560739E+01
	2.971999E-01	4.560742E+01
	2.977194E-01	4.560753E+01
	2.980112E-01	4.560762E+01
	2.981517E-01	4.560768E+01
	2.982242E-01	4.560771E+01
	2.982839E-01	4.560773E+01
	2.987710E-01	4.560789E+01
	2.989468E-01	4.560791E+01
	3.015328E-01	4.560838E+01
	3.017799E-01	4.560845E+01
	3.020766E-01	4.560857E+01
	3.020760E-01	4.560859E+01
	3.021002E-01	4.560858E+01
	3.023848E-01	4.560875E+01
	3.024237E-01	4.560875E+01
	3.037110E-01	4.560796E+01
	3.037808E-01	4.560796E+01
	3.046587E-01	4.560802E+01
	3.053404E-01	4.560794E+01
	3.056321E-01	4.560797E+01
	3.069892E-01	4.560885E+01
	3.071216E-01	4.560883E+01
	3.072074E-01	4.560879E+01
	3.075529E-01	4.560858E+01
	3.077801E-01	4.560830E+01
	3.077868E-01	4.560827E+01
	3.077663E-01	4.560825E+01
	3.077758E-01	4.560822E+01
	3.080715E-01	4.560788E+01
	3.085059E-01	4.560746E+01
	3.086138E-01	4.560733E+01
	3.086889E-01	4.560713E+01
	3.088886E-01	4.560689E+01
	3.098657E-01	4.560608E+01
	3.100364E-01	4.560598E+01
	3.101512E-01	4.560594E+01
	3.120500E-01	4.560550E+01
	3.132810E-01	4.560524E+01
	3.134073E-01	4.560522E+01
	3.143049E-01	4.560526E+01
	3.148975E-01	4.560526E+01
	3.161388E-01	4.560532E+01
	3.163521E-01	4.560529E+01
	3.165051E-01	4.560529E+01
	3.166571E-01	4.560531E+01
	3.169065E-01	4.560541E+01
	3.174203E-01	4.560550E+01
	3.173469E-01	4.560568E+01
	3.176960E-01	4.560572E+01
	3.181284E-01	4.560573E+01
	3.183956E-01	4.560578E+01
	3.184279E-01	4.560582E+01
	3.199489E-01	4.560605E+01
	3.209107E-01	4.560603E+01
	3.212157E-01	4.560601E+01
	3.219961E-01	4.560598E+01
	3.220631E-01	4.560599E+01
	3.221262E-01	4.560606E+01
	3.226670E-01	4.560615E+01
	3.225282E-01	4.560676E+01
	3.224008E-01	4.560700E+01
	3.223656E-01	4.560702E+01
	3.221685E-01	4.560747E+01
	3.221047E-01	4.560757E+01
	3.219908E-01	4.560767E+01
	3.220573E-01	4.560768E+01
	3.226575E-01	4.560769E+01
	3.228573E-01	4.560767E+01
	3.235513E-01	4.560771E+01
	3.245468E-01	4.560766E+01
	3.254280E-01	4.560757E+01
	3.258928E-01	4.560759E+01
	3.260038E-01	4.560758E+01
	3.265186E-01	4.560747E+01
	3.267606E-01	4.560747E+01
	3.271740E-01	4.560752E+01
	3.274151E-01	4.560757E+01
	3.274583E-01	4.560761E+01
	3.278054E-01	4.560836E+01
	3.290477E-01	4.560810E+01
	3.291368E-01	4.560807E+01
	3.293897E-01	4.560789E+01
	3.295334E-01	4.560786E+01
	3.298346E-01	4.560774E+01
	3.303816E-01	4.560761E+01
	3.308011E-01	4.560760E+01
	3.313630E-01	4.560734E+01
	3.319626E-01	4.560703E+01
	3.320265E-01	4.560698E+01
	3.327043E-01	4.560679E+01
	3.337723E-01	4.560651E+01
	3.340287E-01	4.560663E+01
	3.346182E-01	4.560653E+01
	3.349663E-01	4.560651E+01
	3.346609E-01	4.560612E+01
	3.346378E-01	4.560606E+01
	3.342631E-01	4.560572E+01
	3.339220E-01	4.560548E+01
	3.327327E-01	4.560457E+01
	3.322874E-01	4.560426E+01
	3.322651E-01	4.560419E+01
	3.322905E-01	4.560416E+01
	3.327582E-01	4.560419E+01
	3.331962E-01	4.560419E+01
	3.335367E-01	4.560413E+01
	3.341794E-01	4.560396E+01
	3.343482E-01	4.560390E+01
	3.350507E-01	4.560359E+01
	3.352051E-01	4.560354E+01
	3.352643E-01	4.560354E+01
	3.353415E-01	4.560350E+01
	3.358818E-01	4.560336E+01
	3.357888E-01	4.560276E+01
	3.357738E-01	4.560275E+01
	3.357791E-01	4.560273E+01
	3.356988E-01	4.560255E+01
	3.356010E-01	4.560242E+01
	3.354791E-01	4.560229E+01
	3.351977E-01	4.560205E+01
	3.351082E-01	4.560199E+01
	3.348955E-01	4.560187E+01
	3.348832E-01	4.560186E+01
	3.348722E-01	4.560186E+01
	3.346229E-01	4.560171E+01
	3.341483E-01	4.560145E+01
	3.340670E-01	4.560138E+01
	3.339862E-01	4.560125E+01
	3.338855E-01	4.560105E+01
	3.338659E-01	4.560104E+01
	3.338770E-01	4.560103E+01
	3.338657E-01	4.560100E+01
	3.338510E-01	4.560100E+01
	3.338622E-01	4.560099E+01
	3.338046E-01	4.560085E+01
	3.336294E-01	4.560027E+01
	3.335853E-01	4.559953E+01
	3.335302E-01	4.559912E+01
	3.335358E-01	4.559906E+01
	3.336617E-01	4.559864E+01
	3.337159E-01	4.559838E+01
	3.337191E-01	4.559786E+01
	3.337081E-01	4.559771E+01
	3.336556E-01	4.559754E+01
	3.334260E-01	4.559714E+01
	3.334005E-01	4.559712E+01
	3.334015E-01	4.559710E+01
	3.332504E-01	4.559688E+01
	3.332358E-01	4.559688E+01
	3.332470E-01	4.559687E+01
	3.332007E-01	4.559680E+01
	3.330315E-01	4.559626E+01
	3.330323E-01	4.559602E+01
	3.329663E-01	4.559581E+01
	3.329570E-01	4.559571E+01
	3.330034E-01	4.559556E+01
	3.330436E-01	4.559547E+01
	3.333397E-01	4.559507E+01
	3.333767E-01	4.559503E+01
	3.334173E-01	4.559495E+01
	3.334141E-01	4.559486E+01
	3.333780E-01	4.559477E+01
	3.333745E-01	4.559472E+01
	3.333988E-01	4.559461E+01
	3.334219E-01	4.559410E+01
	3.334144E-01	4.559406E+01
	3.333824E-01	4.559399E+01
	3.332954E-01	4.559391E+01
	3.332083E-01	4.559386E+01
	3.331964E-01	4.559383E+01
	3.338728E-01	4.559310E+01
	3.339128E-01	4.559306E+01
	3.340428E-01	4.559303E+01
	3.342177E-01	4.559296E+01
	3.354139E-01	4.559237E+01
	3.357917E-01	4.559222E+01
	3.359374E-01	4.559213E+01
	3.362440E-01	4.559190E+01
	3.364478E-01	4.559173E+01
	3.372653E-01	4.559098E+01
	3.373353E-01	4.559094E+01
	3.375492E-01	4.559085E+01
	3.375970E-01	4.559082E+01
	3.376450E-01	4.559075E+01
	3.377112E-01	4.559061E+01
	3.379605E-01	4.558977E+01
	3.381255E-01	4.558931E+01
	3.388678E-01	4.558772E+01
	3.389590E-01	4.558743E+01
	3.389871E-01	4.558740E+01
	3.389881E-01	4.558737E+01
	3.390727E-01	4.558723E+01
	3.392324E-01	4.558688E+01
	3.392446E-01	4.558688E+01
	3.392882E-01	4.558672E+01
	3.393115E-01	4.558671E+01
	3.394670E-01	4.558628E+01
	3.394729E-01	4.558623E+01
	3.395370E-01	4.558605E+01
	3.397299E-01	4.558535E+01
	3.395901E-01	4.558522E+01
	3.397339E-01	4.558393E+01
	3.398525E-01	4.558355E+01
	3.400501E-01	4.558314E+01
	3.401951E-01	4.558279E+01
	3.406727E-01	4.558174E+01
	3.407775E-01	4.558149E+01
	3.408324E-01	4.558139E+01
	3.409579E-01	4.558132E+01
	3.410218E-01	4.558121E+01
	3.415864E-01	4.558010E+01
	3.417353E-01	4.557950E+01
	3.418404E-01	4.557914E+01
	3.420155E-01	4.557861E+01
	3.422849E-01	4.557790E+01
	3.424798E-01	4.557753E+01
	3.429715E-01	4.557678E+01
	3.429598E-01	4.557675E+01
	3.427086E-01	4.557648E+01
	3.425000E-01	4.557617E+01
	3.424311E-01	4.557610E+01
	3.419986E-01	4.557580E+01
	3.418290E-01	4.557563E+01
	3.417642E-01	4.557554E+01
	3.418630E-01	4.557551E+01
	3.419673E-01	4.557545E+01
	3.420539E-01	4.557537E+01
	3.420951E-01	4.557532E+01
	3.420804E-01	4.557528E+01
	3.420623E-01	4.557523E+01
	3.411978E-01	4.557408E+01
	3.410902E-01	4.557398E+01
	3.410102E-01	4.557394E+01
	3.408530E-01	4.557388E+01
	3.400911E-01	4.557372E+01
	3.398314E-01	4.557368E+01
	3.392252E-01	4.557363E+01
	3.390084E-01	4.557361E+01
	3.388733E-01	4.557358E+01
	3.386312E-01	4.557351E+01
	3.385469E-01	4.557350E+01
	3.384694E-01	4.557355E+01
	3.384215E-01	4.557345E+01
	3.383950E-01	4.557336E+01
	3.383865E-01	4.557326E+01
	3.384092E-01	4.557306E+01
	3.385134E-01	4.557267E+01
	3.385318E-01	4.557255E+01
	3.385173E-01	4.557250E+01
	3.384458E-01	4.557237E+01
	3.384286E-01	4.557232E+01
	3.384355E-01	4.557221E+01
	3.384570E-01	4.557215E+01
	3.384962E-01	4.557211E+01
	3.384991E-01	4.557194E+01
	3.385257E-01	4.557188E+01
	3.386616E-01	4.557171E+01
	3.387244E-01	4.557168E+01
	3.389619E-01	4.557162E+01
	3.389746E-01	4.557163E+01
	3.392515E-01	4.557158E+01
	3.400751E-01	4.557152E+01
	3.401081E-01	4.557151E+01
	3.401072E-01	4.557142E+01
	3.400704E-01	4.557096E+01
	3.399905E-01	4.557074E+01
	3.397840E-01	4.557029E+01
	3.397277E-01	4.556996E+01
	3.397081E-01	4.556977E+01
	3.397228E-01	4.556923E+01
	3.397572E-01	4.556919E+01
	3.399901E-01	4.556899E+01
	3.400536E-01	4.556897E+01
	3.410726E-01	4.556864E+01
	3.410992E-01	4.556862E+01
	3.410297E-01	4.556849E+01
	3.409760E-01	4.556848E+01
	3.399532E-01	4.556837E+01
	3.399318E-01	4.556835E+01
	3.398189E-01	4.556802E+01
	3.397399E-01	4.556786E+01
	3.397355E-01	4.556780E+01
	3.397865E-01	4.556766E+01
	3.397979E-01	4.556759E+01
	3.397817E-01	4.556744E+01
	3.397398E-01	4.556732E+01
	3.397423E-01	4.556730E+01
	3.397663E-01	4.556728E+01
	3.399568E-01	4.556720E+01
	3.401070E-01	4.556711E+01
	3.404808E-01	4.556685E+01
	3.405750E-01	4.556681E+01
	3.412503E-01	4.556657E+01
	3.413090E-01	4.556654E+01
	3.412633E-01	4.556652E+01
	3.408876E-01	4.556643E+01
	3.398400E-01	4.556624E+01
	3.394568E-01	4.556620E+01
	3.393650E-01	4.556618E+01
	3.391246E-01	4.556610E+01
	3.383557E-01	4.556576E+01
	3.381897E-01	4.556570E+01
	3.379492E-01	4.556557E+01
	3.378809E-01	4.556555E+01
	3.377354E-01	4.556551E+01
	3.370336E-01	4.556542E+01
	3.369661E-01	4.556543E+01
	3.365658E-01	4.556555E+01
	3.365020E-01	4.556556E+01
	3.361718E-01	4.556552E+01
	3.360883E-01	4.556550E+01
	3.361020E-01	4.556545E+01
	3.361602E-01	4.556537E+01
	3.362487E-01	4.556530E+01
	3.363545E-01	4.556524E+01
	3.368707E-01	4.556499E+01
	3.376086E-01	4.556462E+01
	3.377128E-01	4.556454E+01
	3.379837E-01	4.556422E+01
	3.380880E-01	4.556408E+01
	3.381869E-01	4.556392E+01
	3.383420E-01	4.556359E+01
	3.384481E-01	4.556325E+01
	3.384981E-01	4.556300E+01
	3.385208E-01	4.556269E+01
	3.385002E-01	4.556238E+01
	3.384789E-01	4.556229E+01
	3.384406E-01	4.556219E+01
	3.383572E-01	4.556208E+01
	3.382644E-01	4.556201E+01
	3.381168E-01	4.556191E+01
	3.380573E-01	4.556188E+01
	3.379226E-01	4.556186E+01
	3.370240E-01	4.556182E+01
	3.369157E-01	4.556180E+01
	3.359164E-01	4.556157E+01
	3.358096E-01	4.556153E+01
	3.355017E-01	4.556134E+01
	3.354591E-01	4.556134E+01
	3.351208E-01	4.556139E+01
	3.349394E-01	4.556138E+01
	3.346757E-01	4.556136E+01
	3.343265E-01	4.556131E+01
	3.331736E-01	4.556119E+01
	3.330151E-01	4.556119E+01
	3.327137E-01	4.556120E+01
	3.321421E-01	4.556122E+01
	3.319472E-01	4.556120E+01
	3.319154E-01	4.556117E+01
	3.317275E-01	4.556118E+01
	3.316467E-01	4.556115E+01
	3.311151E-01	4.556094E+01
	3.310825E-01	4.556091E+01
	3.310068E-01	4.556075E+01
	3.309991E-01	4.556066E+01
	3.309757E-01	4.556062E+01
	3.309198E-01	4.556057E+01
	3.308614E-01	4.556054E+01
	3.308351E-01	4.556054E+01
	3.306169E-01	4.556061E+01
	3.305901E-01	4.556061E+01
	3.295217E-01	4.555990E+01
	3.294113E-01	4.555980E+01
	3.293752E-01	4.555975E+01
	3.293779E-01	4.555973E+01
	3.294001E-01	4.555971E+01
	3.298978E-01	4.555941E+01
	3.299208E-01	4.555938E+01
	3.294315E-01	4.555848E+01
	3.286316E-01	4.555701E+01
	3.283583E-01	4.555656E+01
	3.281009E-01	4.555606E+01
	3.283532E-01	4.555595E+01
	3.283310E-01	4.555560E+01
	3.282899E-01	4.555556E+01
	3.281162E-01	4.555546E+01
	3.280822E-01	4.555543E+01
	3.279088E-01	4.555534E+01
	3.275541E-01	4.555523E+01
	3.275232E-01	4.555523E+01
	3.273799E-01	4.555529E+01
	3.271542E-01	4.555533E+01
	3.260902E-01	4.555562E+01
	3.254870E-01	4.555572E+01
	3.246993E-01	4.555609E+01
	3.245930E-01	4.555612E+01
	3.243900E-01	4.555614E+01
	3.240853E-01	4.555622E+01
	3.236513E-01	4.555630E+01
	3.232690E-01	4.555641E+01
	3.231279E-01	4.555650E+01
	3.218819E-01	4.555737E+01
	3.213429E-01	4.555745E+01
	3.211930E-01	4.555747E+01
	3.209329E-01	4.555834E+01
	3.208909E-01	4.555861E+01
	3.206106E-01	4.555917E+01
	3.205375E-01	4.555927E+01
	3.203901E-01	4.555941E+01
	3.202756E-01	4.555982E+01
	3.201948E-01	4.556058E+01
	3.200272E-01	4.556126E+01
	3.197978E-01	4.556189E+01
	3.196011E-01	4.556232E+01
	3.189344E-01	4.556327E+01
	3.184034E-01	4.556380E+01
	3.183626E-01	4.556382E+01
	3.182369E-01	4.556382E+01
	3.180878E-01	4.556389E+01
	3.180798E-01	4.556392E+01
	3.181740E-01	4.556407E+01
	3.183553E-01	4.556417E+01
	3.188916E-01	4.556435E+01
	3.190460E-01	4.556446E+01
	3.190972E-01	4.556452E+01
	3.191110E-01	4.556468E+01
	3.187105E-01	4.556526E+01
	3.186582E-01	4.556537E+01
	3.185259E-01	4.556583E+01
	3.180581E-01	4.556647E+01
	3.173991E-01	4.556712E+01
	3.173545E-01	4.556713E+01
	3.165421E-01	4.556714E+01
	3.160666E-01	4.556716E+01
	3.156829E-01	4.556720E+01
	3.149674E-01	4.556732E+01
	3.139439E-01	4.556746E+01
	3.138200E-01	4.556750E+01
	3.134946E-01	4.556756E+01
	3.134653E-01	4.556759E+01
	3.134635E-01	4.556766E+01
	3.135203E-01	4.556778E+01
	3.136251E-01	4.556789E+01
	3.138714E-01	4.556811E+01
	3.142596E-01	4.556861E+01
	3.143425E-01	4.556874E+01
	3.144478E-01	4.556902E+01
	3.145041E-01	4.556936E+01
	3.145346E-01	4.557039E+01
	3.145835E-01	4.557064E+01
	3.145776E-01	4.557163E+01
	3.146632E-01	4.557224E+01
	3.140960E-01	4.557236E+01
	3.135929E-01	4.557353E+01
	3.136022E-01	4.557371E+01
	3.135459E-01	4.557432E+01
	3.136011E-01	4.557459E+01
	3.135893E-01	4.557472E+01
	3.134770E-01	4.557523E+01
	3.133649E-01	4.557542E+01
	3.131960E-01	4.557563E+01
	3.129157E-01	4.557594E+01
	3.128222E-01	4.557608E+01
	3.126957E-01	4.557635E+01
	3.126321E-01	4.557643E+01
	3.122236E-01	4.557681E+01
	3.121521E-01	4.557692E+01
	3.120627E-01	4.557714E+01
	3.120670E-01	4.557722E+01
	3.122016E-01	4.557751E+01
	3.121551E-01	4.557777E+01
	3.121041E-01	4.557791E+01
	3.119855E-01	4.557811E+01
	3.119348E-01	4.557815E+01
	3.110972E-01	4.557795E+01
	3.109457E-01	4.557793E+01
	3.106312E-01	4.557783E+01
	3.104847E-01	4.557782E+01
	3.103398E-01	4.557778E+01
	3.102456E-01	4.557777E+01
	3.098554E-01	4.557767E+01
	3.097069E-01	4.557767E+01
	3.094362E-01	4.557772E+01
	3.089771E-01	4.557770E+01
	3.089304E-01	4.557769E+01
	3.088127E-01	4.557761E+01
	3.081991E-01	4.557702E+01
	3.078974E-01	4.557698E+01
	3.075880E-01	4.557705E+01
	3.067176E-01	4.557700E+01
	3.063798E-01	4.557694E+01
	3.055060E-01	4.557675E+01
	3.051951E-01	4.557674E+01
	3.049947E-01	4.557663E+01
	3.047525E-01	4.557654E+01
	3.046517E-01	4.557648E+01
	3.045649E-01	4.557648E+01
	3.039170E-01	4.557617E+01
	3.038397E-01	4.557596E+01
	3.037451E-01	4.557583E+01
	3.037387E-01	4.557580E+01
	3.037840E-01	4.557566E+01
	3.037853E-01	4.557560E+01
	3.037667E-01	4.557557E+01
	3.037050E-01	4.557555E+01
	3.034719E-01	4.557557E+01
	3.034223E-01	4.557556E+01
	3.033639E-01	4.557553E+01
	3.032992E-01	4.557546E+01
	3.032053E-01	4.557542E+01
	3.031567E-01	4.557541E+01
	3.029593E-01	4.557547E+01
	3.026748E-01	4.557551E+01
	3.023681E-01	4.557563E+01
	3.022626E-01	4.557564E+01
	3.019747E-01	4.557561E+01
	3.018760E-01	4.557558E+01
	3.017676E-01	4.557548E+01
	3.017036E-01	4.557548E+01
	3.016131E-01	4.557552E+01
	3.015148E-01	4.557554E+01
	3.012842E-01	4.557553E+01
	3.005017E-01	4.557538E+01
	3.003752E-01	4.557529E+01
	3.001430E-01	4.557522E+01
	2.998874E-01	4.557507E+01
	2.997743E-01	4.557496E+01
	2.996396E-01	4.557469E+01
	2.996384E-01	4.557453E+01
	2.996141E-01	4.557450E+01
	2.993791E-01	4.557443E+01
	2.992965E-01	4.557439E+01
	2.991926E-01	4.557428E+01
	2.990016E-01	4.557401E+01
	2.987917E-01	4.557412E+01
	2.981585E-01	4.557431E+01
	2.974897E-01	4.557459E+01
	2.974206E-01	4.557465E+01
	2.974280E-01	4.557464E+01
	2.969511E-01	4.557501E+01
	2.966492E-01	4.557519E+01
	2.965362E-01	4.557533E+01
	2.961773E-01	4.557552E+01
	2.961097E-01	4.557557E+01
	2.958803E-01	4.557582E+01
	2.954496E-01	4.557609E+01
	2.952542E-01	4.557617E+01
	2.951380E-01	4.557625E+01
	2.947191E-01	4.557660E+01
	2.940119E-01	4.557723E+01
	2.935627E-01	4.557757E+01
	2.935732E-01	4.557757E+01
	2.928902E-01	4.557805E+01
	2.923449E-01	4.557853E+01
	2.922732E-01	4.557857E+01
	2.920081E-01	4.557876E+01
	2.914899E-01	4.557901E+01
END
END
