polygon
1
	-73.159583	7.2152043
	-73.1580655	7.2160671
	-73.1580261	7.2160965
	-73.1570101	7.2162808
	-73.1562312	7.2165112
	-73.1554559	7.2161966
	-73.1545884	7.2157004
	-73.1539506	7.2156122
	-73.1530836	7.2151615
	-73.1523536	7.2148466
	-73.151577	7.2143044
	-73.1506638	7.2137175
	-73.1497519	7.2134489
	-73.1491131	7.2131334
	-73.1484273	7.2125
	-73.147695	7.2116848
	-73.1467803	7.2107795
	-73.1460495	7.2102372
	-73.1450895	7.2094231
	-73.1443153	7.2093812
	-73.143814	7.209247
	-73.1430401	7.2092959
	-73.1407182	7.2093064
	-73.1400354	7.2093551
	-73.1394437	7.2094031
	-73.1365298	7.2094163
	-73.1355296	7.2097391
	-73.1338473	7.2102468
	-73.1328931	7.2107058
	-73.1300852	7.2140377
	-73.1273624	7.2160507
	-73.124002	7.218021
	-73.1224592	7.2192101
	-73.1216016	7.220851
	-73.1210199	7.2231272
	-73.1207115	7.2254475
	-73.1203544	7.2270406
	-73.1197665	7.2279071
	-73.1189957	7.2286382
	-73.1185629	7.2290876
	-73.117381	7.2296844
	-73.1160296	7.2301974
	-73.1150168	7.2307934
	-73.1139233	7.2322347
	-73.1130832	7.2335905
	-73.112242	7.2346928
	-73.1120771	7.2356567
	-73.1115728	7.2364195
	-73.1108136	7.2369299
	-73.1104792	7.2378608
	-73.1102295	7.2387914
	-73.1097253	7.2395541
	-73.1090514	7.2402331
	-73.1088864	7.2411635
	-73.1085531	7.2423479
	-73.1080488	7.2431106
	-73.1076296	7.2439575
	-73.1070406	7.2447205
	-73.1063667	7.2453995
	-73.1056932	7.2461631
	-73.1051043	7.2469263
	-73.1046004	7.2477735
	-73.1038412	7.2482839
	-73.1032522	7.2490469
	-73.1024929	7.2495574
	-73.1016497	7.250237
	-73.100132	7.2514267
	-73.099202	7.2516
	-73.0983576	7.2520261
	-73.0975987	7.2526211
	-73.0962508	7.2539791
	-73.095492	7.2545739
	-73.0946476	7.2550002
	-73.0938883	7.2555105
	-73.0932189	7.2572034
	-73.0927995	7.2580504
	-73.0919553	7.2584766
	-73.0910248	7.2585653
	-73.0900941	7.2585694
	-73.0885656	7.2573931
	-73.0876347	7.2573973
	-73.0867043	7.2574858
	-73.0857747	7.2577434
	-73.0849308	7.2582542
	-73.0844263	7.2590169
	-73.0840916	7.2598635
	-73.0835876	7.2607107
	-73.082914	7.261474
	-73.082749	7.2624043
	-73.0820758	7.2632524
	-73.0813732	7.2637149
	-73.0813711	7.2632424
	-73.0816442	7.262332
	-73.0818381	7.261422
	-73.0821509	7.2605509
	-73.0825827	7.2597189
	-73.0828956	7.2588478
	-73.0830103	7.2579381
	-73.0830063	7.2570289
	-73.0829231	7.2561201
	-73.0822851	7.2550951
	-73.0817276	7.2543465
	-73.081684	7.2534375
	-73.0819175	7.2525272
	-73.081953	7.2516179
	-73.0820699	7.2511786
	-73.0820658	7.2502694
	-73.0816649	7.2491247
	-73.0812654	7.2482964
	-73.0811426	7.2473877
	-73.0813761	7.2464775
	-73.0816492	7.2455671
	-73.081645	7.2446183
	-73.0818785	7.2437081
	-73.0825486	7.2430727
	-73.0827821	7.2421624
	-73.0825802	7.2412541
	-73.0825714	7.2392776
	-73.0826466	7.2383681
	-73.0828009	7.2374582
	-73.0830344	7.236548
	-73.0832698	7.2360686
	-73.0833038	7.2348035
	-73.0833403	7.2340918
	-73.0833758	7.2331824
	-73.0838473	7.2323897
	-73.0840416	7.2315587
	-73.0840383	7.2308076
	-73.0841527	7.2298189
	-73.0844258	7.2289085
	-73.0848582	7.2282345
	-73.0850544	7.2278384
	-73.0854476	7.2272437
	-73.0858012	7.2266492
	-73.0865467	7.2251437
	-73.0867419	7.2245341
	-73.0868165	7.223506
	-73.087169	7.2226347
	-73.0877983	7.2217228
	-73.0885446	7.2204149
	-73.0890532	7.2190687
	-73.0894069	7.2184742
	-73.0899202	7.2181952
	-73.0901143	7.2173247
	-73.0903092	7.2166518
	-73.090346	7.2160191
	-73.0903439	7.2155448
	-73.0905002	7.2150697
	-73.0905378	7.2146347
	-73.0901794	7.2141461
	-73.0893464	7.2137545
	-73.0886719	7.2134017
	-73.0880758	7.2128509
	-73.0862508	7.2119102
	-73.0857739	7.2114774
	-73.0849385	7.2105324
	-73.0842622	7.2097842
	-73.0834282	7.2091554
	-73.0829522	7.2089203
	-73.0823182	7.208765
	-73.0820401	7.208529
	-73.0818015	7.2082929
	-73.0815912	7.2079826
	-73.0814603	7.2077308
	-73.0813372	7.2074761
	-73.0812219	7.2072184
	-73.0811144	7.2069578
	-73.0810466	7.2067801
	-73.081004	7.2066446
	-73.0809653	7.2064941
	-73.0808764	7.2061055
	-73.0808466	7.2059955
	-73.0808158	7.2058987
	-73.0807759	7.2057945
	-73.0807317	7.2057007
	-73.0806804	7.2056117
	-73.0806162	7.2055163
	-73.0805164	7.2053875
	-73.0803957	7.2052506
	-73.0802503	7.2051007
	-73.0800333	7.2048893
	-73.0799434	7.20481
	-73.07984	7.2047262
	-73.0794414	7.2044288
	-73.0792804	7.2043003
	-73.0792004	7.2042298
	-73.0791143	7.2041477
	-73.0789202	7.203947
	-73.0787839	7.2037952
	-73.0786249	7.2036104
	-73.0783093	7.2032357
	-73.0781413	7.2030279
	-73.077861	7.2026607
	-73.0773608	7.2019766
	-73.0771615	7.2017093
	-73.0769411	7.2014261
	-73.076782	7.2012358
	-73.0765748	7.2010077
	-73.0763333	7.2007602
	-73.076096	7.2005288
	-73.0755267	7.1999861
	-73.0752494	7.1997111
	-73.0751188	7.1995752
	-73.0749991	7.1994452
	-73.0748883	7.1993193
	-73.0747855	7.1991962
	-73.0746253	7.1989886
	-73.0744843	7.1987837
	-73.0744205	7.1986817
	-73.074361	7.1985796
	-73.0743058	7.1984773
	-73.0742546	7.1983748
	-73.0741846	7.1982231
	-73.0741177	7.1980693
	-73.0740543	7.1979136
	-73.0739942	7.1977559
	-73.0739374	7.1975962
	-73.073884	7.1974345
	-73.0738338	7.1972709
	-73.0737927	7.1971252
	-73.0737731	7.1968768
	-73.0739571	7.19647
	-73.0739599	7.1955691
	-73.073861	7.194665
	-73.0740839	7.1937868
	-73.0743999	7.1929245
	-73.0747833	7.1923094
	-73.0746449	7.1922596
	-73.0743741	7.1922056
	-73.0741024	7.1921573
	-73.07383	7.1921146
	-73.0736214	7.1920859
	-73.0734775	7.1920698
	-73.0729297	7.1920263
	-73.0727227	7.1920054
	-73.0724043	7.1919603
	-73.0720782	7.1919055
	-73.0717022	7.1918308
	-73.0713422	7.1917464
	-73.0709978	7.1916521
	-73.0706686	7.1915479
	-73.070457	7.1914726
	-73.0702922	7.1914078
	-73.0701275	7.1913337
	-73.0699549	7.191247
	-73.0697965	7.1911605
	-73.0696223	7.1910593
	-73.0690271	7.1906935
	-73.0687929	7.1905548
	-73.0685508	7.1904227
	-73.0683281	7.1903153
	-73.0681638	7.190246
	-73.0679743	7.1901739
	-73.0672665	7.1899315
	-73.0669765	7.1898233
	-73.0667973	7.1897486
	-73.0666019	7.189661
	-73.0657951	7.1892731
	-73.0656063	7.1891864
	-73.0654356	7.1891123
	-73.065238	7.1890335
	-73.0648247	7.1888813
	-73.0646192	7.1888124
	-73.0644389	7.1887603
	-73.064358	7.1887404
	-73.0642822	7.1887254
	-73.0642023	7.1887135
	-73.0641198	7.1887049
	-73.0639452	7.188698
	-73.0637558	7.1887045
	-73.0635901	7.1887195
	-73.0634041	7.188744
	-73.0628034	7.1888452
	-73.0625936	7.1888768
	-73.0623972	7.1888986
	-73.0622211	7.188909
	-73.0620602	7.1889083
	-73.0619098	7.1888967
	-73.0617681	7.188874
	-73.0616339	7.1888401
	-73.0615306	7.1888057
	-73.0614201	7.1887641
	-73.0613047	7.1887162
	-73.0611816	7.1886608
	-73.061031	7.1885885
	-73.0608498	7.1884968
	-73.0605491	7.1883356
	-73.0602897	7.1881825
	-73.0600359	7.1880191
	-73.0597877	7.1878454
	-73.059545	7.1876613
	-73.0585646	7.1867711
	-73.0568147	7.186031
	-73.0590439	7.1822211
	-73.0595988	7.1807235
	-73.0602801	7.1795992
	-73.0603384	7.1786645
	-73.0607065	7.17723
	-73.0616356	7.1757308
	-73.0621311	7.1749188
	-73.0625024	7.1742319
	-73.0629987	7.1736067
	-73.0636192	7.1728565
	-73.0641776	7.1721688
	-73.0644863	7.1714198
	-73.0647944	7.1705463
	-73.0647798	7.1671822
	-73.0645897	7.1664978
	-73.0643386	7.1661251
	-73.0639624	7.1656906
	-73.063586	7.1651938
	-73.0631478	7.1648219
	-73.0628967	7.1644492
	-73.0628942	7.1638885
	-73.0626184	7.1625819
	-73.0626369	7.1624032
	-73.0626496	7.1622256
	-73.0626566	7.1620489
	-73.0626579	7.1618731
	-73.0626536	7.1616984
	-73.0626435	7.1615245
	-73.0626277	7.1613517
	-73.0626062	7.1611798
	-73.0625627	7.160921
	-73.0625413	7.1608174
	-73.0625171	7.1607208
	-73.0624619	7.1605376
	-73.0623147	7.1601009
	-73.06228	7.1599829
	-73.0622535	7.1598771
	-73.0622326	7.1597746
	-73.0622136	7.159659
	-73.062146	7.1591592
	-73.0621247	7.1590418
	-73.0621008	7.1589368
	-73.0620789	7.158858
	-73.0620544	7.1587839
	-73.061979	7.1585968
	-73.0618854	7.1584018
	-73.0617666	7.1581834
	-73.0616818	7.158038
	-73.0616218	7.1579484
	-73.0615499	7.1578539
	-73.0613775	7.1576406
	-73.0613017	7.1575375
	-73.0612418	7.1574414
	-73.061197	7.1573497
	-73.0611579	7.1572458
	-73.0611248	7.1571387
	-73.0611006	7.1570401
	-73.0618209	7.1566884
	-73.0620079	7.1557897
	-73.0622264	7.1549123
	-73.0624945	7.1540489
	-73.0628028	7.1531989
	-73.0631494	7.1523638
	-73.0635309	7.1515439
	-73.0639366	7.1507357
	-73.064356	7.1499345
	-73.0647812	7.1491364
	-73.0652122	7.1483401
	-73.0657295	7.1475722
	-73.0659568	7.1473732
	-73.0659267	7.1473581
	-73.0657489	7.1472499
	-73.065548	7.1471132
	-73.0653484	7.1469617
	-73.0652388	7.146871
	-73.0651856	7.1468225
	-73.0650987	7.1467302
	-73.0650093	7.1466188
	-73.0649268	7.1465036
	-73.0647248	7.1462065
	-73.064665	7.1461251
	-73.0646091	7.1460548
	-73.0645435	7.1459809
	-73.0644784	7.145917
	-73.0644123	7.1458619
	-73.0643448	7.145815
	-73.0642823	7.1457791
	-73.0642027	7.1457386
	-73.0640431	7.1456694
	-73.0638815	7.1456142
	-73.0637222	7.1455743
	-73.0635545	7.1455473
	-73.0633829	7.1455341
	-73.0632115	7.1455348
	-73.0630437	7.1455494
	-73.0629565	7.1455628
	-73.0628716	7.1455802
	-73.0627894	7.1456013
	-73.0627103	7.1456261
	-73.0626007	7.1456698
	-73.0623925	7.1457773
	-73.0622855	7.1458244
	-73.0621394	7.1458747
	-73.0619795	7.1459153
	-73.0617966	7.1459478
	-73.0615888	7.1459719
	-73.0613753	7.1459876
	-73.0608063	7.1460182
	-73.0606397	7.1460327
	-73.0604929	7.1460511
	-73.0603291	7.1460804
	-73.0601812	7.1461177
	-73.0600462	7.1461636
	-73.0599227	7.1462189
	-73.0598425	7.1462633
	-73.0597671	7.1463127
	-73.0597035	7.1463613
	-73.0596038	7.1464455
	-73.0595108	7.1465306
	-73.059425	7.1466161
	-73.0593468	7.1467017
	-73.0592765	7.1467868
	-73.0592266	7.1468562
	-73.0591774	7.1469359
	-73.0591253	7.147032
	-73.059013	7.147258
	-73.05896	7.1473576
	-73.0586561	7.1478624
	-73.0585793	7.1479764
	-73.0585056	7.1480724
	-73.0584319	7.1481548
	-73.0583569	7.1482248
	-73.0583042	7.1482662
	-73.0582488	7.1483034
	-73.0581771	7.1483459
	-73.0581021	7.1483851
	-73.0580281	7.1484192
	-73.0579533	7.1484493
	-73.0578784	7.148475
	-73.0578044	7.1484961
	-73.0577329	7.1485122
	-73.0576581	7.1485248
	-73.0575814	7.1485336
	-73.0575033	7.1485387
	-73.057425	7.1485399
	-73.0573473	7.1485372
	-73.0572711	7.1485307
	-73.0571971	7.1485204
	-73.0570855	7.1484961
	-73.056984	7.1484602
	-73.056876	7.1484071
	-73.0567612	7.148336
	-73.0566167	7.1482302
	-73.0562056	7.1479041
	-73.0560586	7.1477813
	-73.0559178	7.1476551
	-73.0558171	7.1475591
	-73.0557306	7.1474718
	-73.0556721	7.1474045
	-73.0556138	7.1473286
	-73.0555597	7.1472504
	-73.0555024	7.1471602
	-73.055323	7.1468544
	-73.0552558	7.1467447
	-73.0551861	7.1466414
	-73.0551187	7.1465536
	-73.0550424	7.146469
	-73.0549639	7.1463975
	-73.0548844	7.1463397
	-73.054784	7.1462809
	-73.0546938	7.1462361
	-73.0545891	7.1461903
	-73.0541947	7.146037
	-73.0540167	7.1459741
	-73.0538254	7.145916
	-73.0536224	7.1458629
	-73.0533949	7.1458109
	-73.052558	7.1456466
	-73.0522178	7.1455715
	-73.0520706	7.1455339
	-73.0519328	7.145495
	-73.0513852	7.1453238
	-73.0512115	7.1452639
	-73.0510567	7.1452054
	-73.0507487	7.1450794
	-73.050549	7.1449922
	-73.0504039	7.1449226
	-73.0502743	7.1448538
	-73.0501566	7.1447838
	-73.0500492	7.1447117
	-73.0499267	7.1446192
	-73.0498109	7.1445253
	-73.0497087	7.1444355
	-73.049617	7.1443473
	-73.049535	7.1442598
	-73.0494624	7.1441727
	-73.0493992	7.1440863
	-73.0493437	7.143998
	-73.0492851	7.1438893
	-73.0492319	7.1437732
	-73.0491847	7.143651
	-73.049144	7.1435243
	-73.0491099	7.1433916
	-73.0490838	7.1432582
	-73.0490688	7.1431433
	-73.049061	7.14302
	-73.0490601	7.1428836
	-73.0490666	7.1427333
	-73.0490837	7.1425302
	-73.049101	7.1423914
	-73.0491263	7.1422422
	-73.0491598	7.1420838
	-73.0492058	7.1418983
	-73.0492488	7.1417479
	-73.0492777	7.1416679
	-73.0493124	7.1415856
	-73.0493532	7.1415003
	-73.0494008	7.1414103
	-73.0495001	7.1412414
	-73.0497675	7.1408158
	-73.0498381	7.1406915
	-73.0498953	7.1405782
	-73.0499498	7.1404499
	-73.04999	7.1403271
	-73.0500159	7.1402115
	-73.0500321	7.1400814
	-73.050043	7.1399092
	-73.0500438	7.1397311
	-73.0500341	7.1395453
	-73.0500154	7.1393798
	-73.0499932	7.1392694
	-73.0499608	7.1391485
	-73.0499209	7.1390231
	-73.0498011	7.1386736
	-73.049769	7.1385652
	-73.0497449	7.1384673
	-73.0497044	7.1382523
	-73.0496707	7.1380315
	-73.0496446	7.1378109
	-73.049626	7.1375892
	-73.049615	7.1373674
	-73.0496113	7.1371446
	-73.0496151	7.1369207
	-73.0496263	7.1366958
	-73.0496449	7.1364699
	-73.049671	7.136243
	-73.0497045	7.136015
	-73.0497454	7.1357861
	-73.0497743	7.1355061
	-73.0497965	7.135151
	-73.0497949	7.1347723
	-73.0496994	7.134607
	-73.0493661	7.1343452
	-73.0504966	7.1341665
	-73.0512793	7.1340763
	-73.0517988	7.1334656
	-73.0522298	7.1325077
	-73.0523997	7.1315509
	-73.0525686	7.1303333
	-73.052998	7.1290278
	-73.0529932	7.1278979
	-73.0539489	7.1275461
	-73.0549041	7.1271074
	-73.0554244	7.1266706
	-73.0568114	7.1254479
	-73.0578518	7.1245742
	-73.0590666	7.1237868
	-73.0593232	7.1227427
	-73.0593135	7.1204829
	-73.0598289	7.1189162
	-73.0604335	7.1178706
	-73.0605978	7.1156101
	-73.0605944	7.1148279
	-73.0611154	7.1145649
	-73.0621614	7.114995
	-73.0634662	7.1149025
	-73.0641589	7.1141173
	-73.0649416	7.114027
	-73.0658991	7.1141098
	-73.0665986	7.114889
	-73.0672988	7.1158421
	-73.0681741	7.1170552
	-73.0687896	7.1185301
	-73.0687941	7.1195731
	-73.0691489	7.121136
	-73.0701105	7.1221748
	-73.0714157	7.1221692
	-73.0728038	7.1212072
	-73.0731496	7.1206842
	-73.0739297	7.1199855
	-73.0748868	7.1199814
	-73.0756707	7.1201518
	-73.0762816	7.1205837
	-73.0773288	7.1212745
	-73.078026	7.1215323
	-73.0788939	7.121007
	-73.0791508	7.1200498
	-73.0799297	7.1190904
	-73.0804473	7.1180452
	-73.0804352	7.1152639
	-73.0813844	7.1134346
	-73.0819015	7.1123025
	-73.0825939	7.1114303
	-73.0825844	7.1092575
	-73.0831829	7.1068213
	-73.0837875	7.1057757
	-73.0850896	7.1050747
	-73.0862162	7.1040269
	-73.0872594	7.1038485
	-73.0878647	7.1029768
	-73.088604	7.1020828
	-73.0887303	7.10193
	-73.0898561	7.1007083
	-73.0916825	7.1005266
	-73.0929873	7.100434
	-73.0937668	7.0996484
	-73.0944576	7.0984286
	-73.0960192	7.0973788
	-73.1042654	7.0929103
	-73.1060135	7.0947278
	-73.1066198	7.0941168
	-73.1054771	7.0914274
	-73.105561	7.0907318
	-73.1060073	7.0899883
	-73.1062072	7.0896046
	-73.1064143	7.0892265
	-73.1066751	7.0888893
	-73.1069926	7.0885955
	-73.1073057	7.0882979
	-73.1075589	7.0879541
	-73.1077694	7.087577
	-73.1079813	7.0872008
	-73.1081977	7.086829
	-73.1083883	7.086442
	-73.1085819	7.0860574
	-73.1088199	7.0857021
	-73.1091073	7.0853795
	-73.1093929	7.0850552
	-73.1095956	7.0846776
	-73.1097701	7.0842817
	-73.1099124	7.0838756
	-73.1100052	7.0834566
	-73.1100705	7.0830292
	-73.1101947	7.0826234
	-73.110403	7.0822454
	-73.1106149	7.0818701
	-73.1108552	7.0815154
	-73.1111366	7.0811907
	-73.1115566	7.0807452
	-73.1117485	7.08036
	-73.1121314	7.0795891
	-73.1123231	7.0792038
	-73.1125152	7.0788187
	-73.1127081	7.0784341
	-73.1129028	7.0780499
	-73.1131891	7.0777309
	-73.1134947	7.0774281
	-73.1141107	7.0768262
	-73.1144135	7.0765202
	-73.1147474	7.0762555
	-73.1151372	7.0760734
	-73.1154617	7.0757881
	-73.115742	7.0754649
	-73.1159245	7.0750721
	-73.1161845	7.0747344
	-73.1165006	7.0744388
	-73.1168816	7.0742416
	-73.1172266	7.0739955
	-73.1175789	7.0737603
	-73.117987	7.0736245
	-73.1184119	7.0735678
	-73.1188381	7.0735491
	-73.119264	7.0734889
	-73.1196482	7.0733026
	-73.1199968	7.0730495
	-73.1202928	7.0727377
	-73.1205692	7.0724078
	-73.1208936	7.0721265
	-73.1212668	7.0719122
	-73.1216618	7.0717418
	-73.1220609	7.0715812
	-73.122459	7.071418
	-73.122861	7.0712651
	-73.1232218	7.0710302
	-73.1235578	7.0707615
	-73.1238909	7.0704884
	-73.1241409	7.070142
	-73.1243008	7.0697222
	-73.1247972	7.0699339
	-73.1251472	7.0703383
	-73.126134	7.0703339
	-73.1269476	7.0705623
	-73.1275321	7.0714875
	-73.1271314	7.0727649
	-73.1266144	7.0739848
	-73.1252255	7.0749187
	-73.1247097	7.0764285
	-73.124656	7.0774145
	-73.124196	7.0784022
	-73.1239698	7.0797369
	-73.1249018	7.0804866
	-73.1258305	7.0804825
	-73.126641	7.080015
	-73.1273925	7.0793159
	-73.1280279	7.0786173
	-73.128662	7.0776288
	-73.1298213	7.0772758
	-73.1302882	7.0778535
	-73.1299438	7.0787248
	-73.129424	7.079307
	-73.129021	7.0800625
	-73.1287925	7.0808753
	-73.129319	7.081428
	-73.1302267	7.08154
	-73.1310663	7.0815231
	-73.1320068	7.0813905
	-73.1323526	7.081255
	-73.1329666	7.081024
	-73.1336509	7.0806515
	-73.1341642	7.0802039
	-73.1350272	7.0794074
	-73.1353656	7.0792208
	-73.1361211	7.0789851
	-73.1367106	7.0788355
	-73.1375515	7.0785528
	-73.1379132	7.0784201
	-73.1382732	7.0782026
	-73.1386552	7.0777611
	-73.1391948	7.0770192
	-73.1393482	7.0768017
	-73.1396867	7.0763083
	-73.1402997	7.0756068
	-73.1406236	7.0753036
	-73.1412239	7.0752885
	-73.1423468	7.0751985
	-73.1434833	7.0750486
	-73.1442127	7.0748043
	-73.1452978	7.0745978
	-73.1453597	7.0745691
	-73.1457712	7.0745785
	-73.1467587	7.0747481
	-73.1476876	7.0748019
	-73.1496647	7.0756049
	-73.1507693	7.0760058
	-73.1542559	7.076918
	-73.1552429	7.0769716
	-73.157278	7.0777743
	-73.1579773	7.078409
	-73.1586249	7.0804355
	-73.1585182	7.0825233
	-73.1582332	7.0836843
	-73.1579466	7.0844973
	-73.1582376	7.0846699
	-73.1591665	7.0847238
	-73.159805	7.0847209
	-73.1595765	7.0855337
	-73.1594653	7.0866359
	-73.1588373	7.088958
	-73.1588542	7.0927268
	-73.158571	7.0942936
	-73.1584591	7.0952218
	-73.1584486	7.0959797
	-73.1586611	7.0960064
	-73.1590877	7.0960643
	-73.1595063	7.0961484
	-73.1598991	7.096323
	-73.1604739	7.0965917
	-73.1609043	7.096594
	-73.1613346	7.0965911
	-73.1617661	7.0965639
	-73.1621959	7.0965512
	-73.1626196	7.0966063
	-73.1630391	7.096708
	-73.1634597	7.0968044
	-73.1638851	7.0968696
	-73.1643137	7.0969242
	-73.1647427	7.0969783
	-73.1651473	7.0971086
	-73.1655307	7.0973044
	-73.1659106	7.0975128
	-73.1663094	7.0976843
	-73.166712	7.0978467
	-73.1670447	7.098101
	-73.1672964	7.098459
	-73.1674806	7.0988478
	-73.1676598	7.0992372
	-73.1679145	7.0995831
	-73.1681836	7.0999208
	-73.1684407	7.1002664
	-73.1686741	7.1006287
	-73.1688921	7.1010021
	-73.1690837	7.1013864
	-73.1692376	7.1017951
	-73.1692965	7.1022183
	-73.1691902	7.1026299
	-73.1690343	7.1030389
	-73.1688986	7.1034473
	-73.1687616	7.1038552
	-73.1686241	7.104263
	-73.1684569	7.1047599
	-73.1681325	7.1050428
	-73.1678207	7.1053392
	-73.1674344	7.1057278
	-73.1671633	7.1060617
	-73.1668968	7.1064005
	-73.166633	7.1067411
	-73.1663779	7.1070874
	-73.1661379	7.1074434
	-73.1659205	7.107814
	-73.1657177	7.1081942
	-73.1654204	7.1087557
	-73.1653236	7.109161
	-73.1653235	7.1095908
	-73.1653303	7.1100227
	-73.165331	7.1104543
	-73.1653114	7.110884
	-73.1652605	7.1114911
	-73.1651968	7.1119157
	-73.1651073	7.1123368
	-73.165011	7.1127563
	-73.1648019	7.1135234
	-73.1646935	7.1139404
	-73.1645902	7.1143594
	-73.164485	7.1147777
	-73.1643706	7.1151924
	-73.16424	7.1156009
	-73.164077	7.115997
	-73.1638781	7.1163794
	-73.1635804	7.1169298
	-73.1634009	7.1173253
	-73.1630965	7.1176209
	-73.1627634	7.1178935
	-73.1620904	7.1184191
	-73.1620102	7.118842
	-73.1619292	7.1192647
	-73.1618487	7.1196874
	-73.1617697	7.1201104
	-73.1616936	7.120534
	-73.1616239	7.1209586
	-73.1614962	7.1218007
	-73.1614313	7.1222261
	-73.1613624	7.1226509
	-73.1612939	7.1230762
	-73.1612212	7.1235007
	-73.1611325	7.1239212
	-73.1610025	7.1243317
	-73.1608658	7.1247405
	-73.1607747	7.1251606
	-73.1607021	7.125587
	-73.1606378	7.1260157
	-73.1605764	7.1264432
	-73.1603824	7.1272558
	-73.1603391	7.1274111
	-73.1602907	7.127563
	-73.160237	7.1277116
	-73.1601781	7.1278568
	-73.1601139	7.1279988
	-73.1600445	7.1281375
	-73.1599697	7.1282731
	-73.1598904	7.128404
	-73.1598389	7.1284798
	-73.1597811	7.1285565
	-73.1597165	7.1286349
	-73.1596438	7.1287164
	-73.1595028	7.1288619
	-73.1591566	7.1292004
	-73.1590689	7.1292917
	-73.1589927	7.1293764
	-73.1586947	7.1297446
	-73.1585713	7.1299044
	-73.1584618	7.1300521
	-73.1583495	7.1302118
	-73.1582488	7.1303648
	-73.1581597	7.1305106
	-73.1580644	7.1306782
	-73.1579714	7.1308536
	-73.157883	7.1310328
	-73.1577994	7.1312153
	-73.1577209	7.1314005
	-73.1576494	7.1315834
	-73.1575833	7.131768
	-73.1575225	7.1319536
	-73.1574673	7.1321399
	-73.1574179	7.1323264
	-73.1573744	7.1325125
	-73.1573368	7.1326979
	-73.1573053	7.132882
	-73.1572942	7.1329726
	-73.1572879	7.1330684
	-73.1572865	7.1331701
	-73.1572899	7.1332793
	-73.1573085	7.1335059
	-73.1573643	7.1339569
	-73.1573831	7.1341436
	-73.1573925	7.1343363
	-73.1573919	7.1344231
	-73.1573878	7.1345052
	-73.1573788	7.1345929
	-73.1573651	7.134676
	-73.1573468	7.1347551
	-73.1573237	7.1348306
	-73.1572903	7.1349157
	-73.1572325	7.135047
	-73.157181	7.1351537
	-73.1571289	7.1352526
	-73.1570798	7.1353373
	-73.1570299	7.1354158
	-73.156979	7.1354883
	-73.1569271	7.1355546
	-73.156874	7.1356151
	-73.1568199	7.1356696
	-73.1567644	7.1357183
	-73.1567092	7.1357598
	-73.1566301	7.135805
	-73.1565345	7.1358446
	-73.1564327	7.1358767
	-73.1561512	7.1359537
	-73.1560698	7.1359819
	-73.156	7.1360121
	-73.15589	7.1360741
	-73.155764	7.1361553
	-73.1556482	7.136239
	-73.1555388	7.1363275
	-73.1554516	7.1364058
	-73.1553703	7.1364864
	-73.1552953	7.1365688
	-73.1552271	7.1366528
	-73.1550523	7.1368862
	-73.154992	7.1369735
	-73.1549384	7.1370684
	-73.1549198	7.1371117
	-73.1549063	7.137153
	-73.1548986	7.1371882
	-73.1548949	7.137222
	-73.1548952	7.1372547
	-73.1548994	7.1372863
	-73.1549212	7.1373548
	-73.1549628	7.1374365
	-73.1550591	7.1375945
	-73.1551139	7.1376724
	-73.1551956	7.1377712
	-73.1553808	7.1379723
	-73.1554578	7.1380619
	-73.1555435	7.1381781
	-73.1556453	7.1383309
	-73.1557676	7.1385339
	-73.1558843	7.1387503
	-73.1559955	7.1389804
	-73.1561016	7.1392249
	-73.1562082	7.1394983
	-73.1563103	7.1397906
	-73.1564064	7.1400966
	-73.1564842	7.1403796
	-73.1565405	7.1406214
	-73.1565841	7.1408521
	-73.1566102	7.1410331
	-73.1566504	7.1413886
	-73.1566737	7.1416582
	-73.1566778	7.1417703
	-73.156677	7.1418734
	-73.1566715	7.1419711
	-73.1566608	7.1420626
	-73.1566451	7.1421486
	-73.1566242	7.1422296
	-73.1566071	7.1422814
	-73.1565863	7.142332
	-73.1565301	7.1424385
	-73.1564547	7.1425528
	-73.1562806	7.1427865
	-73.1562096	7.1428894
	-73.1561467	7.1429975
	-73.1560942	7.1431146
	-73.156045	7.1432565
	-73.1560018	7.1434196
	-73.1559681	7.1435798
	-73.1558948	7.1439744
	-73.1558478	7.144176
	-73.1558187	7.1442751
	-73.1557866	7.1443661
	-73.1557523	7.1444484
	-73.1557104	7.1445346
	-73.1556504	7.1446421
	-73.155578	7.1447576
	-73.1554934	7.1448816
	-73.1552372	7.1452423
	-73.1551614	7.1453587
	-73.1550985	7.1454656
	-73.1550496	7.1455598
	-73.1550021	7.1456657
	-73.1548671	7.146014
	-73.1548182	7.1461315
	-73.1547682	7.1462363
	-73.1547168	7.1463274
	-73.1546405	7.1464384
	-73.1545486	7.1465527
	-73.1544424	7.1466684
	-73.1543186	7.1467893
	-73.1542035	7.1468932
	-73.1540614	7.1470149
	-73.1538346	7.1472037
	-73.1536667	7.1473377
	-73.1535324	7.1474395
	-73.1534032	7.147532
	-73.1532777	7.1476165
	-73.153155	7.1476933
	-73.1530327	7.1477639
	-73.1529123	7.1478273
	-73.1527808	7.1478893
	-73.1526986	7.1479218
	-73.15262	7.1479462
	-73.15253	7.1479688
	-73.1522199	7.1480299
	-73.1521052	7.1480562
	-73.1519946	7.1480897
	-73.1519005	7.1481287
	-73.1518461	7.1481579
	-73.1517934	7.1481923
	-73.1517197	7.1482461
	-73.1516481	7.1483038
	-73.1515849	7.1483596
	-73.1515253	7.1484172
	-73.1514699	7.1484761
	-73.151419	7.1485356
	-73.1513515	7.1486263
	-73.1512963	7.1487166
	-73.1512531	7.1488074
	-73.1512262	7.1488892
	-73.1512147	7.1489641
	-73.1512124	7.1490503
	-73.1512183	7.1491447
	-73.1512464	7.1494204
	-73.151248	7.1495044
	-73.1512425	7.1495776
	-73.151221	7.1496799
	-73.1511856	7.1497895
	-73.1511377	7.149902
	-73.1510759	7.1500211
	-73.1509661	7.1502011
	-73.1507033	7.1505936
	-73.1504911	7.1509387
	-73.1503323	7.1511876
	-73.1501661	7.1514348
	-73.1500046	7.1516606
	-73.1499032	7.1517947
	-73.1497893	7.1519388
	-73.1495537	7.1522203
	-73.1493096	7.1524907
	-73.1490563	7.1527513
	-73.1488931	7.1529092
	-73.1487268	7.1530628
	-73.1485099	7.1532554
	-73.1483199	7.1534164
	-73.1481608	7.153544
	-73.1480086	7.1536585
	-73.1478577	7.153764
	-73.1477238	7.1538495
	-73.1476229	7.1539054
	-73.1475144	7.1539579
	-73.1473974	7.1540076
	-73.1472699	7.1540553
	-73.1471462	7.1540967
	-73.147007	7.1541391
	-73.1464831	7.1542836
	-73.1462682	7.1543478
	-73.1460495	7.1544245
	-73.1459518	7.1544643
	-73.1458604	7.1545057
	-73.1457448	7.1545653
	-73.1456379	7.1546291
	-73.1454615	7.1547514
	-73.145326	7.1548495
	-73.1452223	7.1549306
	-73.1451345	7.1550067
	-73.1450586	7.1550813
	-73.1449933	7.1551557
	-73.1449238	7.1552485
	-73.1448579	7.1553505
	-73.1447959	7.1554613
	-73.1447383	7.1555803
	-73.1446823	7.1557145
	-73.1446322	7.1558556
	-73.1445972	7.1559735
	-73.1445714	7.1560922
	-73.1445515	7.1562265
	-73.1445376	7.1563795
	-73.1445137	7.1569347
	-73.1445156	7.157117
	-73.1445367	7.157552
	-73.1445371	7.157666
	-73.1445327	7.1577682
	-73.1445194	7.1578905
	-73.1444905	7.1580469
	-73.1444536	7.1582094
	-73.1444123	7.1583573
	-73.1443687	7.1584857
	-73.1443202	7.1586035
	-73.1442661	7.1587128
	-73.1442101	7.1588057
	-73.1441654	7.1588604
	-73.1441067	7.1589176
	-73.144041	7.1589729
	-73.1438639	7.159112
	-73.1438164	7.1591538
	-73.1437782	7.1591922
	-73.1437407	7.1592382
	-73.1437137	7.1592831
	-73.1436967	7.1593277
	-73.1436892	7.1593735
	-73.143689	7.1594077
	-73.143693	7.1594441
	-73.1437136	7.1595243
	-73.1437524	7.1596195
	-73.1438653	7.1598446
	-73.1439089	7.1599457
	-73.1439701	7.1601497
	-73.1440299	7.1603795
	-73.1440828	7.160624
	-73.1441205	7.1608551
	-73.1441438	7.1610778
	-73.1441555	7.161313
	-73.1441565	7.1614803
	-73.1441518	7.1616503
	-73.14414	7.1618373
	-73.144126	7.1619676
	-73.1440953	7.1621564
	-73.144003	7.1626271
	-73.1439346	7.1630694
	-73.1437942	7.163899
	-73.1437356	7.1642671
	-73.1436946	7.164557
	-73.143663	7.1648213
	-73.1436397	7.1650678
	-73.1436244	7.1653
	-73.1436166	7.1655578
	-73.1436178	7.1656554
	-73.1436207	7.1657767
	-73.143625	7.165874
	-73.143625	7.1658997
	-73.1444678	7.1668286
	-73.145096	7.1674795
	-73.1457328	7.168122
	-73.1463643	7.1687698
	-73.1469464	7.1694621
	-73.1474266	7.1702278
	-73.1477885	7.1710562
	-73.1480673	7.1719162
	-73.1482923	7.172794
	-73.1482665	7.1736922
	-73.1484918	7.1745435
	-73.1491061	7.1752059
	-73.1498033	7.1757914
	-73.1503827	7.1764669
	-73.1508093	7.1772687
	-73.1512298	7.1780841
	-73.1516364	7.1789081
	-73.1520216	7.1797357
	-73.1523779	7.1805621
	-73.1526977	7.1813824
	-73.1523423	7.1821699
	-73.1518918	7.1829541
	-73.1514275	7.1837301
	-73.1509106	7.1844724
	-73.1504426	7.1852457
	-73.1502126	7.1861163
	-73.1502479	7.1870206
	-73.1504025	7.1879115
	-73.1505974	7.1887944
	-73.1507829	7.1897707
	-73.1511981	7.1905742
	-73.1516174	7.1913754
	-73.1520116	7.1921894
	-73.1523423	7.1930308
	-73.1525886	7.1939011
	-73.1527225	7.1947919
	-73.1526872	7.1956961
	-73.1526307	7.1965985
	-73.1525709	7.1975006
	-73.1525105	7.1984027
	-73.1524172	7.1993073
	-73.1525154	7.2001972
	-73.1527041	7.20108
	-73.1529086	7.2019616
	-73.1531211	7.2028425
	-73.153334	7.2037234
	-73.1535398	7.204605
	-73.1537307	7.2054877
	-73.1537633	7.2063832
	-73.1537592	7.2072872
	-73.1539505	7.2081712
	-73.1541613	7.2090505
	-73.1544	7.2099226
	-73.1546844	7.2107808
	-73.1550327	7.2116153
	-73.155472	7.2124053
	-73.1560101	7.2131322
	-73.1566058	7.2138128
	-73.1572207	7.2144777
	-73.1578998	7.2150796
	-73.159583	7.2152043
END
END
