polygon
1
	-75.7144187	5.5482573
	-75.7090845	5.5488899
	-75.70506	5.5507959
	-75.7007062	5.5502863
	-75.6973896	5.5515078
	-75.6950497	5.5537678
	-75.693916	5.5581392
	-75.691817	5.5621512
	-75.690975	5.5664679
	-75.6896184	5.570766
	-75.6875962	5.5744038
	-75.6840497	5.5765525
	-75.6810529	5.5797801
	-75.6804576	5.5810466
	-75.6802779	5.5821692
	-75.6792441	5.5835874
	-75.6792161	5.5846442
	-75.6791367	5.5871638
	-75.6787819	5.5881143
	-75.6784544	5.5890377
	-75.6783999	5.5903685
	-75.6787546	5.5924055
	-75.6787273	5.5943609
	-75.6779632	5.5952571
	-75.6772791	5.5957775
	-75.6762302	5.5981675
	-75.6750793	5.5980387
	-75.6737113	5.5981421
	-75.6732282	5.5978679
	-75.6728162	5.5972151
	-75.6728614	5.5958989
	-75.6725005	5.5946971
	-75.6724491	5.5928628
	-75.6725412	5.5904436
	-75.6722177	5.5892786
	-75.670297	5.5873106
	-75.6698663	5.5866283
	-75.6697508	5.5860547
	-75.6695833	5.5859263
	-75.6692483	5.5856658
	-75.6690158	5.5843147
	-75.6689916	5.5835736
	-75.6689212	5.5816653
	-75.6687681	5.5810178
	-75.6683185	5.58028
	-75.6680017	5.579986
	-75.6675007	5.579786
	-75.6668155	5.5796802
	-75.6662027	5.5793699
	-75.6652177	5.5787846
	-75.6648209	5.5777128
	-75.6647042	5.5769724
	-75.6649539	5.5757806
	-75.6647403	5.574485
	-75.664382	5.5735983
	-75.6642852	5.573043
	-75.6643928	5.5726159
	-75.6635864	5.5711952
	-75.6631178	5.5704019
	-75.6625603	5.5700727
	-75.6616516	5.5697647
	-75.66093	5.5697333
	-75.6605063	5.569959
	-75.6603104	5.5709372
	-75.6593202	5.5720569
	-75.6580877	5.5729375
	-75.6574484	5.5739804
	-75.6574024	5.5752039
	-75.6562529	5.5748607
	-75.654037	5.5729691
	-75.653439	5.5721768
	-75.6531766	5.5717341
	-75.6527972	5.5713884
	-75.6524945	5.5711609
	-75.648622	5.5734514
	-75.6441585	5.5741782
	-75.6400442	5.5759662
	-75.6361098	5.5781798
	-75.6318313	5.5796184
	-75.6277442	5.5815268
	-75.6239746	5.5814064
	-75.6194419	5.5824237
	-75.6163576	5.5851121
	-75.613318	5.5883725
	-75.6107749	5.5921183
	-75.6067254	5.5936616
	-75.6028096	5.5959132
	-75.5991616	5.5985124
	-75.5961049	5.6018517
	-75.5929071	5.6050471
	-75.5887603	5.6072821
	-75.5810949	5.6037364
	-75.581145	5.6025998
	-75.5806341	5.600137
	-75.5806541	5.5982326
	-75.5804236	5.5957598
	-75.5802635	5.5934965
	-75.5798726	5.5919111
	-75.5788708	5.5904653
	-75.5787806	5.5897176
	-75.5790111	5.5891591
	-75.5789409	5.5885111
	-75.5786203	5.5874442
	-75.5780179	5.5865446
	-75.5774381	5.5853902
	-75.5763161	5.5840042
	-75.5759854	5.5827578
	-75.5761257	5.5814617
	-75.5769472	5.5804944
	-75.5767669	5.5794076
	-75.576286	5.5779717
	-75.5747732	5.5751997
	-75.5747332	5.5742624
	-75.5751539	5.5731956
	-75.5752442	5.5722582
	-75.5757149	5.5709221
	-75.5761457	5.5690675
	-75.5769072	5.5659664
	-75.5769773	5.56471
	-75.5764564	5.5618582
	-75.5761558	5.5594651
	-75.5764062	5.5571816
	-75.5763962	5.5556361
	-75.5761057	5.5512087
	-75.5759654	5.5498626
	-75.5755647	5.5485862
	-75.5744126	5.5471802
	-75.5742123	5.5463226
	-75.5739817	5.5456247
	-75.5728697	5.5446375
	-75.5715591	5.5441395
	-75.5705955	5.5434209
	-75.5696337	5.541636
	-75.5691929	5.5399707
	-75.5689925	5.5379863
	-75.5698441	5.534895
	-75.5696939	5.5340275
	-75.5696738	5.5330304
	-75.5691628	5.5295002
	-75.5692794	5.5272107
	-75.5691023	5.5246582
	-75.5690527	5.5230716
	-75.5695344	5.5218871
	-75.5702074	5.5209633
	-75.5715676	5.5200961
	-75.5730128	5.5191652
	-75.5754781	5.517614
	-75.5760803	5.5172613
	-75.5767321	5.5170216
	-75.5770863	5.516662
	-75.5773607	5.5162137
	-75.5777249	5.5158857
	-75.5780679	5.5157001
	-75.5782451	5.5163517
	-75.5785226	5.5168178
	-75.5788694	5.5171543
	-75.5791902	5.5173615
	-75.579641	5.5173874
	-75.5799618	5.5175254
	-75.5802478	5.517793
	-75.580534	5.5180087
	-75.5811582	5.5182676
	-75.5818865	5.5183539
	-75.582268	5.5184402
	-75.5827362	5.5186473
	-75.583239	5.5186819
	-75.5836552	5.5187164
	-75.5839413	5.5186042
	-75.5841234	5.5183884
	-75.5842275	5.5180864
	-75.584453	5.5179397
	-75.5847391	5.5179915
	-75.5848864	5.5182504
	-75.5850511	5.518328
	-75.5852766	5.5183108
	-75.5855888	5.5179742
	-75.5858402	5.5178447
	-75.5864211	5.5179656
	-75.5868633	5.5181295
	-75.5872447	5.5182072
	-75.5876003	5.5181554
	-75.5879297	5.5180346
	-75.5881552	5.5177757
	-75.5883806	5.5177153
	-75.588632	5.517793
	-75.5890048	5.5178793
	-75.5893083	5.5178879
	-75.5895684	5.5178189
	-75.5898024	5.5178793
	-75.5907791	5.518823
	-75.592117	5.5197996
	-75.5930982	5.5185567
	-75.5950605	5.5184679
	-75.5966661	5.518024
	-75.5976472	5.5196221
	-75.5996095	5.5198884
	-75.601661	5.5209538
	-75.6021962	5.5227294
	-75.6037126	5.5235285
	-75.6044261	5.5251266
	-75.6061209	5.525748
	-75.6085292	5.5261919
	-75.6094211	5.5274349
	-75.6118294	5.5274349
	-75.612543	5.5286778
	-75.6123646	5.5303647
	-75.6137917	5.5304534
	-75.6153973	5.5309861
	-75.617538	5.5318739
	-75.6189651	5.5309861
	-75.6200355	5.529832
	-75.6213734	5.5289442
	-75.6219978	5.52779
	-75.6236925	5.5268134
	-75.6253872	5.5262807
	-75.6269036	5.5258368
	-75.6278847	5.5261032
	-75.6299362	5.5259256
	-75.631681	5.5261918
	-75.6352459	5.5260739
	-75.6358504	5.5280522
	-75.6362597	5.5280965
	-75.6364797	5.5281734
	-75.6368944	5.5281408
	-75.6374018	5.5285723
	-75.6378154	5.5284478
	-75.6384099	5.5290329
	-75.6391018	5.5292813
	-75.6394264	5.5296941
	-75.6406242	5.5299835
	-75.640974	5.5302964
	-75.6413189	5.5302515
	-75.6420598	5.5304421
	-75.6427877	5.5302595
	-75.6437404	5.5305414
	-75.6452671	5.5304224
	-75.6458063	5.530543
	-75.6467051	5.5304534
	-75.6488458	5.5305422
	-75.6491526	5.5303044
	-75.6497502	5.5301922
	-75.6500678	5.5297395
	-75.6505822	5.5297528
	-75.6508493	5.5296559
	-75.6511567	5.5297373
	-75.6513461	5.530008
	-75.6530788	5.5297053
	-75.6533056	5.5281451
	-75.6545544	5.5267246
	-75.6554464	5.5255705
	-75.6562529	5.5244272
	-75.6579866	5.5252102
	-75.6590516	5.5255881
	-75.6596498	5.5256494
	-75.6606058	5.5262514
	-75.6609639	5.526672
	-75.6614417	5.5270929
	-75.6618879	5.5274269
	-75.6623059	5.5274655
	-75.6627969	5.5268471
	-75.663362	5.526733
	-75.6637123	5.5269346
	-75.6642809	5.5271661
	-75.6646722	5.5275204
	-75.6652101	5.5277615
	-75.665316	5.5279274
	-75.6653807	5.5279229
	-75.6656282	5.5281223
	-75.6657226	5.5282744
	-75.6664688	5.5283206
	-75.6672435	5.528306
	-75.6677215	5.528607
	-75.669195	5.5287994
	-75.6699043	5.528914
	-75.6717584	5.5280926
	-75.673161	5.5271237
	-75.674643	5.5271877
	-75.6755282	5.5276814
	-75.6760959	5.5277339
	-75.6763815	5.5273219
	-75.6769946	5.5269803
	-75.6775638	5.5267986
	-75.6785769	5.5266634
	-75.6790681	5.526439
	-75.6795217	5.5257411
	-75.6799298	5.525311
	-75.6813046	5.5242665
	-75.6823339	5.5247956
	-75.6835834	5.5250699
	-75.6859077	5.525052
	-75.6873302	5.5257226
	-75.6886385	5.5262805
	-75.6894919	5.5266715
	-75.6906904	5.5276846
	-75.6917204	5.5289263
	-75.6930323	5.5299387
	-75.6946239	5.5304942
	-75.6967853	5.5313864
	-75.6980449	5.532967
	-75.6987871	5.5336429
	-75.7003324	5.5355055
	-75.7017545	5.5361193
	-75.7024959	5.5366814
	-75.7038613	5.5372957
	-75.7044325	5.5378592
	-75.704833	5.5381879
	-75.7048378	5.5388022
	-75.7054154	5.5395143
	-75.7061356	5.5401536
	-75.7069959	5.5404335
	-75.7088553	5.5404189
	-75.7094336	5.5412025
	-75.7095124	5.5421336
	-75.7100911	5.5429888
	-75.710527	5.5438454
	-75.7111757	5.5444851
	-75.7118952	5.5450528
	-75.7127052	5.5456295
	-75.7134181	5.546369
	-75.7139154	5.5473281
	-75.7144187	5.5482573
END
END
