polygon
1
	5.764339E+00	4.701269E+01
	5.764390E+00	4.701267E+01
	5.768943E+00	4.700943E+01
	5.769036E+00	4.700933E+01
	5.770492E+00	4.700650E+01
	5.770529E+00	4.700641E+01
	5.770872E+00	4.700628E+01
	5.772125E+00	4.700566E+01
	5.772126E+00	4.700563E+01
	5.771848E+00	4.700521E+01
	5.771732E+00	4.700503E+01
	5.771617E+00	4.700481E+01
	5.771552E+00	4.700463E+01
	5.771473E+00	4.700434E+01
	5.771451E+00	4.700413E+01
	5.771405E+00	4.700376E+01
	5.771379E+00	4.700340E+01
	5.771386E+00	4.700303E+01
	5.771377E+00	4.700225E+01
	5.771355E+00	4.700186E+01
	5.771367E+00	4.700178E+01
	5.771452E+00	4.700176E+01
	5.771460E+00	4.700159E+01
	5.771457E+00	4.699900E+01
	5.771432E+00	4.699792E+01
	5.771421E+00	4.699776E+01
	5.771494E+00	4.699758E+01
	5.772648E+00	4.699777E+01
	5.772884E+00	4.699780E+01
	5.773147E+00	4.699781E+01
	5.773183E+00	4.699783E+01
	5.773287E+00	4.699794E+01
	5.773333E+00	4.699797E+01
	5.773390E+00	4.699799E+01
	5.773664E+00	4.699802E+01
	5.773708E+00	4.699800E+01
	5.773716E+00	4.699795E+01
	5.773594E+00	4.699763E+01
	5.773593E+00	4.699760E+01
	5.773731E+00	4.699724E+01
	5.773885E+00	4.699695E+01
	5.773884E+00	4.699691E+01
	5.773779E+00	4.699650E+01
	5.773629E+00	4.699549E+01
	5.773626E+00	4.699533E+01
	5.773719E+00	4.699464E+01
	5.773862E+00	4.699397E+01
	5.774261E+00	4.699366E+01
	5.774300E+00	4.699343E+01
	5.774412E+00	4.699291E+01
	5.774428E+00	4.699277E+01
	5.774589E+00	4.699200E+01
	5.774655E+00	4.699181E+01
	5.774756E+00	4.699161E+01
	5.775067E+00	4.699109E+01
	5.775162E+00	4.699095E+01
	5.775215E+00	4.699090E+01
	5.775399E+00	4.699082E+01
	5.775468E+00	4.699072E+01
	5.775951E+00	4.699079E+01
	5.776752E+00	4.699082E+01
	5.777137E+00	4.699083E+01
	5.777650E+00	4.699082E+01
	5.778557E+00	4.699073E+01
	5.778954E+00	4.699076E+01
	5.779288E+00	4.699075E+01
	5.779462E+00	4.699078E+01
	5.780165E+00	4.699080E+01
	5.780596E+00	4.699093E+01
	5.780907E+00	4.699108E+01
	5.780931E+00	4.699109E+01
	5.781252E+00	4.699121E+01
	5.781573E+00	4.699124E+01
	5.781856E+00	4.699128E+01
	5.782580E+00	4.699129E+01
	5.783596E+00	4.699126E+01
	5.783803E+00	4.699130E+01
	5.784236E+00	4.699132E+01
	5.784446E+00	4.699135E+01
	5.785136E+00	4.699150E+01
	5.785296E+00	4.699154E+01
	5.785908E+00	4.699181E+01
	5.786575E+00	4.699207E+01
	5.787451E+00	4.699250E+01
	5.788159E+00	4.699280E+01
	5.788245E+00	4.699283E+01
	5.788290E+00	4.699283E+01
	5.788948E+00	4.699280E+01
	5.789996E+00	4.699272E+01
	5.791762E+00	4.699264E+01
	5.792587E+00	4.699260E+01
	5.792814E+00	4.699256E+01
	5.793015E+00	4.699257E+01
	5.794102E+00	4.699269E+01
	5.794857E+00	4.699274E+01
	5.796017E+00	4.699290E+01
	5.796604E+00	4.699338E+01
	5.797068E+00	4.699370E+01
	5.798616E+00	4.699421E+01
	5.798900E+00	4.699441E+01
	5.799086E+00	4.699472E+01
	5.799649E+00	4.699504E+01
	5.800541E+00	4.699522E+01
	5.800533E+00	4.699562E+01
	5.800987E+00	4.699630E+01
	5.801312E+00	4.699744E+01
	5.801923E+00	4.699850E+01
	5.802336E+00	4.699895E+01
	5.802727E+00	4.699988E+01
	5.804014E+00	4.700229E+01
	5.805076E+00	4.700285E+01
	5.805267E+00	4.700326E+01
	5.805349E+00	4.700400E+01
	5.805161E+00	4.700540E+01
	5.804956E+00	4.700571E+01
	5.805018E+00	4.700626E+01
	5.805275E+00	4.700738E+01
	5.805126E+00	4.700752E+01
	5.805361E+00	4.700796E+01
	5.805382E+00	4.700867E+01
	5.805133E+00	4.700903E+01
	5.805570E+00	4.700967E+01
	5.805539E+00	4.701009E+01
	5.805563E+00	4.701034E+01
	5.805696E+00	4.701073E+01
	5.805656E+00	4.701112E+01
	5.806085E+00	4.701177E+01
	5.806122E+00	4.701208E+01
	5.806104E+00	4.701257E+01
	5.806478E+00	4.701274E+01
	5.806621E+00	4.701290E+01
	5.806801E+00	4.701405E+01
	5.806954E+00	4.701449E+01
	5.805923E+00	4.701462E+01
	5.805884E+00	4.701530E+01
	5.806086E+00	4.701600E+01
	5.806490E+00	4.701689E+01
	5.806705E+00	4.701767E+01
	5.807152E+00	4.701858E+01
	5.807139E+00	4.701874E+01
	5.804946E+00	4.701889E+01
	5.804952E+00	4.701911E+01
	5.804830E+00	4.701925E+01
	5.804314E+00	4.701947E+01
	5.803506E+00	4.701962E+01
	5.803415E+00	4.702057E+01
	5.803441E+00	4.702084E+01
	5.803052E+00	4.702130E+01
	5.803024E+00	4.702170E+01
	5.800880E+00	4.702224E+01
	5.798847E+00	4.702250E+01
	5.798057E+00	4.702216E+01
	5.797619E+00	4.702220E+01
	5.795977E+00	4.702248E+01
	5.795574E+00	4.702248E+01
	5.794932E+00	4.702239E+01
	5.792717E+00	4.702265E+01
	5.792573E+00	4.702265E+01
	5.791992E+00	4.702294E+01
	5.791627E+00	4.702251E+01
	5.790035E+00	4.702143E+01
	5.788011E+00	4.702070E+01
	5.784361E+00	4.702027E+01
	5.777824E+00	4.701876E+01
	5.774996E+00	4.701843E+01
	5.771902E+00	4.701831E+01
	5.770592E+00	4.701825E+01
	5.764339E+00	4.701269E+01
END
END
