polygon
1
	-9.735205E+01	3.692696E+01
	-9.735230E+01	3.692696E+01
	-9.735256E+01	3.692696E+01
	-9.735266E+01	3.692696E+01
	-9.735353E+01	3.692696E+01
	-9.735411E+01	3.692696E+01
	-9.735412E+01	3.692707E+01
	-9.735362E+01	3.692707E+01
	-9.735254E+01	3.692706E+01
	-9.735196E+01	3.692706E+01
	-9.735179E+01	3.692706E+01
	-9.735117E+01	3.692705E+01
	-9.735079E+01	3.692706E+01
	-9.734965E+01	3.692709E+01
	-9.734928E+01	3.692710E+01
	-9.734903E+01	3.692710E+01
	-9.734876E+01	3.692710E+01
	-9.734721E+01	3.692708E+01
	-9.734669E+01	3.692708E+01
	-9.734629E+01	3.692709E+01
	-9.734511E+01	3.692712E+01
	-9.734472E+01	3.692713E+01
	-9.734388E+01	3.692713E+01
	-9.734331E+01	3.692713E+01
	-9.734138E+01	3.692714E+01
	-9.734054E+01	3.692714E+01
	-9.733982E+01	3.692714E+01
	-9.733854E+01	3.692715E+01
	-9.733811E+01	3.692714E+01
	-9.733765E+01	3.692712E+01
	-9.733708E+01	3.692711E+01
	-9.733702E+01	3.692711E+01
	-9.733703E+01	3.692701E+01
	-9.733698E+01	3.692701E+01
	-9.733683E+01	3.692701E+01
	-9.733678E+01	3.692701E+01
	-9.733655E+01	3.692701E+01
	-9.733620E+01	3.692701E+01
	-9.733586E+01	3.692701E+01
	-9.733563E+01	3.692702E+01
	-9.733540E+01	3.692702E+01
	-9.733506E+01	3.692702E+01
	-9.733471E+01	3.692702E+01
	-9.733448E+01	3.692702E+01
	-9.733425E+01	3.692702E+01
	-9.733422E+01	3.692702E+01
	-9.733415E+01	3.692702E+01
	-9.733354E+01	3.692702E+01
	-9.733331E+01	3.692702E+01
	-9.733308E+01	3.692702E+01
	-9.733261E+01	3.692703E+01
	-9.733241E+01	3.692703E+01
	-9.733218E+01	3.692703E+01
	-9.733214E+01	3.692703E+01
	-9.733203E+01	3.692703E+01
	-9.733199E+01	3.692703E+01
	-9.733200E+01	3.692626E+01
	-9.733202E+01	3.692495E+01
	-9.733101E+01	3.692498E+01
	-9.733050E+01	3.692500E+01
	-9.733050E+01	3.692474E+01
	-9.733050E+01	3.692426E+01
	-9.733049E+01	3.692282E+01
	-9.733049E+01	3.692234E+01
	-9.733021E+01	3.692224E+01
	-9.732987E+01	3.692209E+01
	-9.732971E+01	3.692197E+01
	-9.732964E+01	3.692192E+01
	-9.732945E+01	3.692176E+01
	-9.732927E+01	3.692156E+01
	-9.732911E+01	3.692135E+01
	-9.732900E+01	3.692111E+01
	-9.732859E+01	3.691967E+01
	-9.732835E+01	3.691883E+01
	-9.732920E+01	3.691881E+01
	-9.732949E+01	3.691880E+01
	-9.732971E+01	3.692104E+01
	-9.732972E+01	3.692116E+01
	-9.733046E+01	3.692116E+01
	-9.733106E+01	3.692113E+01
	-9.733238E+01	3.692107E+01
	-9.733239E+01	3.692060E+01
	-9.733240E+01	3.692000E+01
	-9.733240E+01	3.691993E+01
	-9.733240E+01	3.691986E+01
	-9.733252E+01	3.691985E+01
	-9.733258E+01	3.691985E+01
	-9.733297E+01	3.691985E+01
	-9.733414E+01	3.691985E+01
	-9.733453E+01	3.691985E+01
	-9.733499E+01	3.691985E+01
	-9.733638E+01	3.691984E+01
	-9.733684E+01	3.691984E+01
	-9.733684E+01	3.691991E+01
	-9.733684E+01	3.692011E+01
	-9.733684E+01	3.692018E+01
	-9.733684E+01	3.692041E+01
	-9.733682E+01	3.692109E+01
	-9.733682E+01	3.692132E+01
	-9.733682E+01	3.692155E+01
	-9.733682E+01	3.692178E+01
	-9.733682E+01	3.692223E+01
	-9.733682E+01	3.692246E+01
	-9.733682E+01	3.692267E+01
	-9.733680E+01	3.692331E+01
	-9.733680E+01	3.692352E+01
	-9.733680E+01	3.692357E+01
	-9.733680E+01	3.692374E+01
	-9.733680E+01	3.692380E+01
	-9.733680E+01	3.692399E+01
	-9.733679E+01	3.692456E+01
	-9.733679E+01	3.692466E+01
	-9.733680E+01	3.692475E+01
	-9.733680E+01	3.692498E+01
	-9.733680E+01	3.692565E+01
	-9.733680E+01	3.692588E+01
	-9.733680E+01	3.692602E+01
	-9.733678E+01	3.692644E+01
	-9.733678E+01	3.692658E+01
	-9.733693E+01	3.692658E+01
	-9.733708E+01	3.692658E+01
	-9.733708E+01	3.692686E+01
	-9.733708E+01	3.692701E+01
	-9.733774E+01	3.692700E+01
	-9.733801E+01	3.692700E+01
	-9.733817E+01	3.692700E+01
	-9.733884E+01	3.692700E+01
	-9.733972E+01	3.692699E+01
	-9.733994E+01	3.692699E+01
	-9.734039E+01	3.692699E+01
	-9.734123E+01	3.692699E+01
	-9.734297E+01	3.692699E+01
	-9.734322E+01	3.692698E+01
	-9.734378E+01	3.692697E+01
	-9.734436E+01	3.692697E+01
	-9.734463E+01	3.692697E+01
	-9.734504E+01	3.692697E+01
	-9.734627E+01	3.692697E+01
	-9.734668E+01	3.692697E+01
	-9.734720E+01	3.692697E+01
	-9.734878E+01	3.692697E+01
	-9.734906E+01	3.692697E+01
	-9.734930E+01	3.692697E+01
	-9.734968E+01	3.692697E+01
	-9.735081E+01	3.692697E+01
	-9.735119E+01	3.692697E+01
	-9.735177E+01	3.692696E+01
	-9.735191E+01	3.692696E+01
	-9.735205E+01	3.692696E+01
END
END
