polygon
1
	-78.6261542	-5.3063732
	-78.6243264	-5.3069964
	-78.62052	-5.3069964
	-78.6154447	-5.3069171
	-78.6096582	-5.3075059
	-78.6058039	-5.3091946
	-78.6052402	-5.3094414
	-78.6044922	-5.3098986
	-78.6014414	-5.3131036
	-78.5980781	-5.3165124
	-78.5929571	-5.3217736
	-78.5928731	-5.3217442
	-78.5898707	-5.3248819
	-78.5898116	-5.3249437
	-78.586976	-5.3278522
	-78.5831695	-5.3318172
	-78.5786495	-5.3358616
	-78.5745259	-5.3383198
	-78.568499	-5.3416505
	-78.5639789	-5.3446242
	-78.5613164	-5.3475957
	-78.5599821	-5.349192
	-78.557508	-5.3529983
	-78.5547166	-5.3562972
	-78.5528945	-5.3583496
	-78.5522069	-5.3589785
	-78.5520937	-5.3593222
	-78.5516895	-5.3598378
	-78.5516289	-5.3600097
	-78.5513145	-5.3602676
	-78.5512246	-5.3602382
	-78.5509434	-5.3604668
	-78.5508261	-5.3604668
	-78.5504219	-5.3608086
	-78.5486992	-5.3616075
	-78.5461191	-5.3623437
	-78.5443945	-5.363082
	-78.544166	-5.3633106
	-78.5436485	-5.3635957
	-78.5413307	-5.3647348
	-78.5398716	-5.3656865
	-78.53892	-5.3676531
	-78.5386027	-5.3691122
	-78.5388632	-5.3705273
	-78.5390469	-5.3721573
	-78.5372071	-5.3745046
	-78.5340274	-5.3771132
	-78.5324491	-5.3784378
	-78.5312437	-5.3798337
	-78.5302921	-5.3806583
	-78.5287061	-5.3821808
	-78.5279449	-5.3833862
	-78.5278082	-5.3837506
	-78.5273739	-5.3849088
	-78.5264222	-5.3873195
	-78.5262059	-5.3875517
	-78.524459	-5.3894257
	-78.5235	-5.3922617
	-78.5226792	-5.3943613
	-78.521347	-5.3955033
	-78.5195706	-5.3963915
	-78.5185801	-5.3984766
	-78.5184024	-5.3992793
	-78.5186191	-5.4011495
	-78.5191901	-5.4029258
	-78.5199514	-5.4042581
	-78.5204922	-5.4062382
	-78.5221485	-5.4088887
	-78.5226489	-5.4114331
	-78.5226895	-5.4145188
	-78.5227706	-5.4168738
	-78.5221616	-5.4192693
	-78.5215932	-5.4205686
	-78.5193601	-5.4223145
	-78.5174519	-5.4233701
	-78.5149345	-5.4249941
	-78.5137571	-5.4260903
	-78.513148	-5.4277145
	-78.5122142	-5.4312468
	-78.51193	-5.4335205
	-78.511727	-5.4367686
	-78.511727	-5.4396107
	-78.5112804	-5.4434273
	-78.511321	-5.4467972
	-78.5121736	-5.4493146
	-78.5131076	-5.4522378
	-78.5139601	-5.4533747
	-78.5146836	-5.4539805
	-78.5151781	-5.4543492
	-78.5181015	-5.4557296
	-78.519158	-5.4561306
	-78.5204564	-5.4566228
	-78.5226895	-5.4577715
	-78.5233776	-5.4581081
	-78.5249617	-5.4591147
	-78.5254882	-5.4594492
	-78.5279271	-5.4609267
	-78.5301196	-5.4624696
	-78.5316621	-5.4637246
	-78.5340174	-5.4650681
	-78.5359256	-5.4658395
	-78.5372655	-5.4664891
	-78.5384429	-5.4673825
	-78.5392676	-5.4680078
	-78.5405272	-5.469332
	-78.541405	-5.469907
	-78.5421376	-5.4703868
	-78.543437	-5.4717673
	-78.544858	-5.4733915
	-78.5459949	-5.4753403
	-78.5475996	-5.4775195
	-78.5454527	-5.479903
	-78.5430771	-5.4817671
	-78.5419951	-5.4841817
	-78.5409257	-5.4852758
	-78.539757	-5.4859472
	-78.5375438	-5.4864197
	-78.5348831	-5.4867927
	-78.5335402	-5.4862456
	-78.5316503	-5.4851763
	-78.5295118	-5.4853007
	-78.5282933	-5.4864197
	-78.5261232	-5.4890176
	-78.5254712	-5.4883465
	-78.5229336	-5.4872222
	-78.5196583	-5.4857242
	-78.518963	-5.4856121
	-78.5171457	-5.4852307
	-78.5157325	-5.4851633
	-78.5136016	-5.4852827
	-78.5132216	-5.4852467
	-78.5126637	-5.4851943
	-78.5125895	-5.4851873
	-78.5121767	-5.4852267
	-78.5108647	-5.4853528
	-78.5103067	-5.4854063
	-78.5068585	-5.4868749
	-78.5029386	-5.4881676
	-78.5007287	-5.4889598
	-78.4991025	-5.4888765
	-78.497643	-5.4879591
	-78.4956413	-5.4853321
	-78.4950992	-5.4844981
	-78.4947657	-5.4839559
	-78.4938986	-5.4837462
	-78.4933896	-5.4845398
	-78.4933062	-5.4863328
	-78.4935563	-5.4876255
	-78.4933802	-5.489108
	-78.4929038	-5.490835
	-78.4925165	-5.4917075
	-78.4919633	-5.4929532
	-78.4918547	-5.4930535
	-78.4907536	-5.4940693
	-78.4889695	-5.4958402
	-78.4875935	-5.4985507
	-78.4862002	-5.5022727
	-78.4847872	-5.5056797
	-78.4835701	-5.5086456
	-78.4829693	-5.5101013
	-78.481954	-5.511506
	-78.481762	-5.5116737
	-78.4806711	-5.5126262
	-78.4804723	-5.5129876
	-78.4804601	-5.513594
	-78.4804582	-5.5136827
	-78.4803056	-5.514811
	-78.478628	-5.5164816
	-78.4777931	-5.5174082
	-78.4769618	-5.5194151
	-78.4770623	-5.5213091
	-78.4771245	-5.5224846
	-78.4770635	-5.5238161
	-78.4767817	-5.5248833
	-78.4767281	-5.5250866
	-78.4766976	-5.5266517
	-78.4765655	-5.5283491
	-78.4763216	-5.5293858
	-78.4756192	-5.5306291
	-78.4748681	-5.5314491
	-78.4736383	-5.5323638
	-78.4715166	-5.532966
	-78.4703553	-5.5341628
	-78.4697862	-5.5353012
	-78.4694711	-5.5357687
	-78.4689223	-5.5364802
	-78.4683023	-5.5371408
	-78.4679363	-5.5380047
	-78.4675118	-5.5384766
	-78.4670827	-5.5392855
	-78.4659861	-5.5412347
	-78.4654157	-5.5416841
	-78.4647755	-5.541989
	-78.463789	-5.5420442
	-78.463505	-5.5420601
	-78.4615253	-5.5429235
	-78.4608013	-5.5432391
	-78.4590126	-5.5439506
	-78.4551096	-5.5451706
	-78.4515651	-5.5470053
	-78.4488146	-5.5489082
	-78.4473806	-5.5491798
	-78.4456442	-5.5496607
	-78.4431063	-5.5505157
	-78.4404883	-5.5515038
	-78.4360806	-5.5507293
	-78.4356798	-5.553187
	-78.4349996	-5.5555112
	-78.4337467	-5.5565231
	-78.4324217	-5.5570531
	-78.4304702	-5.5572217
	-78.4283502	-5.5565712
	-78.4270918	-5.5556641
	-78.425922	-5.5571977
	-78.4258423	-5.5594272
	-78.4249666	-5.56094
	-78.4221001	-5.5610196
	-78.4187375	-5.5611005
	-78.4121843	-5.5608596
	-78.407758	-5.55867
	-78.4017575	-5.5566261
	-78.4000896	-5.5563428
	-78.3987307	-5.5561121
	-78.3955898	-5.556569
	-78.3913318	-5.5585373
	-78.3902208	-5.5591797
	-78.3857771	-5.5616156
	-78.3823118	-5.5652303
	-78.3805928	-5.5678134
	-78.3781973	-5.5697716
	-78.3714886	-5.5731967
	-78.3678641	-5.5744759
	-78.3656637	-5.5752526
	-78.3630367	-5.5766802
	-78.3629767	-5.5767539
	-78.3621565	-5.5758499
	-78.3602532	-5.5746453
	-78.357555	-5.5736334
	-78.3556132	-5.5734926
	-78.3545676	-5.5734167
	-78.3520861	-5.5726457
	-78.3509735	-5.5720643
	-78.3494118	-5.5712483
	-78.3474603	-5.5706459
	-78.3412508	-5.5706603
	-78.3384017	-5.5698511
	-78.3375662	-5.5696137
	-78.3364021	-5.5689837
	-78.3350705	-5.5678928
	-78.3323763	-5.563552
	-78.331628	-5.562579
	-78.3307298	-5.5622796
	-78.3255658	-5.5592112
	-78.325042	-5.5568162
	-78.324593	-5.5557683
	-78.3239193	-5.5538226
	-78.3234703	-5.551802
	-78.3233955	-5.549931
	-78.3239193	-5.549407
	-78.325216	-5.548941
	-78.3276001	-5.5477661
	-78.329129	-5.5461641
	-78.3290996	-5.5449593
	-78.3292718	-5.5445645
	-78.3295665	-5.5438887
	-78.3315912	-5.541808
	-78.3339455	-5.5403793
	-78.33418	-5.5402371
	-78.3350245	-5.5397246
	-78.3360476	-5.538868
	-78.3363712	-5.5378926
	-78.334215	-5.5372045
	-78.3309936	-5.5373968
	-78.327243	-5.5359063
	-78.3245985	-5.5331656
	-78.3238772	-5.5307135
	-78.3220021	-5.5270111
	-78.3213872	-5.5237502
	-78.3200098	-5.5222578
	-78.3198255	-5.5203521
	-78.3184688	-5.5180088
	-78.3170711	-5.51546
	-78.3161666	-5.5135278
	-78.3150566	-5.5122123
	-78.3136311	-5.5101378
	-78.3135001	-5.5099472
	-78.3131233	-5.5089147
	-78.3131233	-5.5076298
	-78.3123023	-5.5065391
	-78.3109046	-5.5051825
	-78.3092143	-5.5048207
	-78.3080126	-5.5040516
	-78.3066186	-5.5033787
	-78.3039747	-5.5025135
	-78.3031576	-5.500831
	-78.3044555	-5.4983795
	-78.3064863	-5.4948325
	-78.3091706	-5.4884365
	-78.3101412	-5.4868947
	-78.3118305	-5.4859927
	-78.3145758	-5.4832271
	-78.31566	-5.4814007
	-78.3168087	-5.4797794
	-78.3180007	-5.4786531
	-78.3198202	-5.4734492
	-78.3204112	-5.4706901
	-78.3206081	-5.4685012
	-78.320805	-5.4663102
	-78.3207962	-5.4658166
	-78.3210327	-5.4630586
	-78.3204472	-5.4598812
	-78.319968	-5.4584573
	-78.3176885	-5.4516853
	-78.3173028	-5.4499514
	-78.3170401	-5.4476138
	-78.316436	-5.4452498
	-78.3161733	-5.4430172
	-78.3165675	-5.4408896
	-78.3169613	-5.4394186
	-78.3175392	-5.4379739
	-78.3188848	-5.4356862
	-78.3190325	-5.4344553
	-78.3194258	-5.4328282
	-78.3197956	-5.4307134
	-78.3198448	-5.4296057
	-78.3205336	-5.4283078
	-78.3217618	-5.4265567
	-78.3231185	-5.4234094
	-78.3232523	-5.4230992
	-78.3243498	-5.4194387
	-78.3244975	-5.4163123
	-78.323316	-5.4136044
	-78.322752	-5.4129212
	-78.3222233	-5.4104106
	-78.3228015	-5.4083152
	-78.323674	-5.4061076
	-78.3258361	-5.4042689
	-78.3275703	-5.4036186
	-78.3307257	-5.4012712
	-78.3312921	-5.4002372
	-78.3315627	-5.3989817
	-78.3321536	-5.3972586
	-78.3324282	-5.3966821
	-78.3336951	-5.3940233
	-78.3344041	-5.3925354
	-78.33584	-5.3890079
	-78.3375693	-5.3877316
	-78.338506	-5.3873204
	-78.3389233	-5.3865992
	-78.3401788	-5.3847529
	-78.3420251	-5.3833251
	-78.3424322	-5.3830531
	-78.3437892	-5.3815782
	-78.3446226	-5.3791963
	-78.3457063	-5.3727656
	-78.347007	-5.3695141
	-78.3496082	-5.3655401
	-78.3524261	-5.3622886
	-78.3545016	-5.3594064
	-78.3560745	-5.3579216
	-78.3566232	-5.3575014
	-78.3579033	-5.3556552
	-78.358463	-5.3534571
	-78.3606046	-5.3517326
	-78.3614482	-5.3510763
	-78.3634422	-5.3495254
	-78.3671082	-5.3475992
	-78.3677995	-5.3472361
	-78.3682941	-5.3466053
	-78.3691896	-5.3455411
	-78.3694833	-5.3430414
	-78.3695048	-5.3428866
	-78.3697638	-5.3410293
	-78.3708441	-5.3370397
	-78.3711542	-5.3358939
	-78.3715413	-5.3338196
	-78.3718751	-5.3331076
	-78.3758247	-5.3313578
	-78.3794371	-5.3291824
	-78.382326	-5.3261206
	-78.3850316	-5.3223479
	-78.38839	-5.3187421
	-78.3896068	-5.3170052
	-78.389778	-5.3161188
	-78.3900536	-5.3135103
	-78.3901391	-5.3111447
	-78.3896621	-5.3100319
	-78.38703	-5.3085133
	-78.385714	-5.3070961
	-78.3852151	-5.3042911
	-78.385714	-5.3026417
	-78.3859163	-5.3010219
	-78.3864226	-5.2995036
	-78.38703	-5.2983898
	-78.3876903	-5.2939148
	-78.3885765	-5.2882036
	-78.3892852	-5.2841739
	-78.3908906	-5.2801046
	-78.391186	-5.2761657
	-78.3915301	-5.2754567
	-78.3916185	-5.2752748
	-78.3932537	-5.2719069
	-78.3938615	-5.2697326
	-78.3924661	-5.2671312
	-78.3898032	-5.2608559
	-78.388872	-5.2580473
	-78.3886257	-5.2569396
	-78.388664	-5.2564809
	-78.3886996	-5.2560533
	-78.3889458	-5.2554626
	-78.3918907	-5.2535938
	-78.3934847	-5.2519359
	-78.3952046	-5.2495792
	-78.4003436	-5.2408152
	-78.40283	-5.2351286
	-78.4037901	-5.2342669
	-78.4060302	-5.2326914
	-78.410172	-5.2302541
	-78.4140062	-5.2294419
	-78.416788	-5.2296143
	-78.4207515	-5.2295651
	-78.4237497	-5.2294351
	-78.4267208	-5.2287951
	-78.4298843	-5.2285258
	-78.4306923	-5.2283401
	-78.4329697	-5.2278162
	-78.4353887	-5.2266973
	-78.4369767	-5.2250216
	-78.4370087	-5.2249624
	-78.437752	-5.2235893
	-78.4377828	-5.2216147
	-78.4369742	-5.2186103
	-78.4368512	-5.2163456
	-78.435965	-5.2107574
	-78.4347095	-5.2056617
	-78.4354457	-5.2034007
	-78.4370517	-5.2017303
	-78.437144	-5.2016921
	-78.439344	-5.2007904
	-78.4430055	-5.2003443
	-78.4458118	-5.1988181
	-78.4469197	-5.1973903
	-78.4475105	-5.1955932
	-78.4477428	-5.1935747
	-78.4480861	-5.1905254
	-78.4502996	-5.1830407
	-78.451245	-5.1807759
	-78.4520721	-5.1793777
	-78.4528218	-5.1783154
	-78.4533916	-5.1777234
	-78.454396	-5.1766796
	-78.4553801	-5.1758401
	-78.4600515	-5.1739442
	-78.4618368	-5.1737797
	-78.462493	-5.1737193
	-78.4628062	-5.1737964
	-78.4671046	-5.1748544
	-78.4696096	-5.1756201
	-78.4714716	-5.1762081
	-78.4732541	-5.1767709
	-78.4763057	-5.1777347
	-78.4780723	-5.1785377
	-78.480032	-5.1798868
	-78.4811241	-5.1807863
	-78.4817666	-5.1816537
	-78.4819653	-5.1819677
	-78.482058	-5.1827698
	-78.482058	-5.1841274
	-78.4820888	-5.1858243
	-78.4824591	-5.1874904
	-78.483107	-5.1885087
	-78.4852358	-5.1897428
	-78.4862541	-5.1899279
	-78.4876733	-5.1903289
	-78.4890926	-5.1908227
	-78.4898947	-5.1914706
	-78.4905736	-5.1924579
	-78.491715	-5.1937911
	-78.4928258	-5.1956358
	-78.4946157	-5.1979719
	-78.495997	-5.1994496
	-78.4991618	-5.2011224
	-78.500719	-5.2016661
	-78.5014202	-5.2019569
	-78.5020358	-5.2022122
	-78.5072398	-5.2054566
	-78.508006	-5.2057867
	-78.5100422	-5.2064654
	-78.5122188	-5.2072227
	-78.5140841	-5.2085018
	-78.5159045	-5.2104764
	-78.5174871	-5.2121702
	-78.5191575	-5.2139691
	-78.5205066	-5.2167317
	-78.5209242	-5.2183377
	-78.5213096	-5.2231884
	-78.5214108	-5.2252127
	-78.5212445	-5.2280458
	-78.5208892	-5.2304028
	-78.5211798	-5.2323723
	-78.521761	-5.2356011
	-78.5218256	-5.2375706
	-78.5217933	-5.2394754
	-78.5220193	-5.2403149
	-78.522988	-5.2418001
	-78.5246022	-5.2430593
	-78.5256355	-5.2431562
	-78.5266363	-5.2435436
	-78.5274435	-5.2436082
	-78.5281538	-5.2436728
	-78.5291407	-5.2439218
	-78.5302822	-5.2451252
	-78.531177	-5.2465444
	-78.5323277	-5.2482119
	-78.5337395	-5.2498396
	-78.5354183	-5.2507436
	-78.5372618	-5.2532849
	-78.5386625	-5.2549761
	-78.5400031	-5.2561032
	-78.5423601	-5.2579113
	-78.5437807	-5.2585894
	-78.5446202	-5.2591059
	-78.5462668	-5.2588153
	-78.5480103	-5.2590091
	-78.5499798	-5.2589122
	-78.5516587	-5.2583311
	-78.5531762	-5.2570396
	-78.554726	-5.2571687
	-78.556998	-5.2553432
	-78.5582357	-5.2532397
	-78.5584703	-5.2526776
	-78.5595556	-5.2500779
	-78.5595628	-5.2500519
	-78.5598401	-5.2490436
	-78.5601177	-5.2486117
	-78.561136	-5.2469147
	-78.5621843	-5.2432207
	-78.563216	-5.2388896
	-78.5634867	-5.2372902
	-78.5640651	-5.2352022
	-78.5671241	-5.2317154
	-78.5685286	-5.2295768
	-78.570412	-5.2279171
	-78.5712657	-5.2260821
	-78.5740942	-5.2214452
	-78.5765547	-5.2180453
	-78.5766582	-5.2147071
	-78.580079	-5.2116958
	-78.5842676	-5.2161308
	-78.5808181	-5.2203194
	-78.5848425	-5.2254937
	-78.5825941	-5.2280661
	-78.582448	-5.2305853
	-78.5820712	-5.2315409
	-78.5846427	-5.2355724
	-78.5860141	-5.2351896
	-78.5863435	-5.2350977
	-78.5872727	-5.2349687
	-78.5885341	-5.2351594
	-78.5901076	-5.2351594
	-78.5916195	-5.2353087
	-78.5930078	-5.2366096
	-78.5938447	-5.2379616
	-78.5953442	-5.2409681
	-78.5960705	-5.2436861
	-78.59634	-5.2445081
	-78.5963698	-5.2448062
	-78.5964635	-5.2457422
	-78.5964326	-5.2466062
	-78.595939	-5.2473158
	-78.5953527	-5.2481488
	-78.5952481	-5.2487326
	-78.5956612	-5.2493213
	-78.5963538	-5.2495102
	-78.5970188	-5.2498149
	-78.5978827	-5.2503394
	-78.5991786	-5.2511723
	-78.6004127	-5.2522832
	-78.6023256	-5.2548132
	-78.6027296	-5.2555262
	-78.6032003	-5.2561207
	-78.604275	-5.2613267
	-78.6050416	-5.2636896
	-78.6053285	-5.2643373
	-78.6058482	-5.2647199
	-78.6065705	-5.2651076
	-78.6068073	-5.2653713
	-78.6085645	-5.2706066
	-78.6097395	-5.2734387
	-78.6107916	-5.2759747
	-78.6134337	-5.2820039
	-78.6176867	-5.2950701
	-78.6183403	-5.2962887
	-78.6185286	-5.2966396
	-78.6203467	-5.3000291
	-78.6261542	-5.3063732
END
END
