polygon
1
	1.701929E+00	4.355183E+01
	1.702247E+00	4.355212E+01
	1.702568E+00	4.355256E+01
	1.702747E+00	4.355292E+01
	1.702808E+00	4.355332E+01
	1.702819E+00	4.355349E+01
	1.702686E+00	4.355372E+01
	1.702826E+00	4.355403E+01
	1.703096E+00	4.355433E+01
	1.703432E+00	4.355453E+01
	1.703690E+00	4.355480E+01
	1.704113E+00	4.355543E+01
	1.704458E+00	4.355602E+01
	1.704834E+00	4.355618E+01
	1.705640E+00	4.355631E+01
	1.706859E+00	4.355670E+01
	1.708094E+00	4.355685E+01
	1.708796E+00	4.355693E+01
	1.710122E+00	4.355717E+01
	1.710914E+00	4.355733E+01
	1.709932E+00	4.355791E+01
	1.708856E+00	4.355864E+01
	1.706679E+00	4.356021E+01
	1.705826E+00	4.356083E+01
	1.705327E+00	4.356128E+01
	1.705857E+00	4.356166E+01
	1.705593E+00	4.356193E+01
	1.706535E+00	4.356276E+01
	1.706786E+00	4.356367E+01
	1.707788E+00	4.356488E+01
	1.708791E+00	4.356610E+01
	1.709260E+00	4.356857E+01
	1.709644E+00	4.357044E+01
	1.710061E+00	4.357291E+01
	1.709355E+00	4.357437E+01
	1.707966E+00	4.357404E+01
	1.708271E+00	4.357597E+01
	1.708216E+00	4.357621E+01
	1.708029E+00	4.357665E+01
	1.707234E+00	4.357669E+01
	1.707596E+00	4.357700E+01
	1.707561E+00	4.357782E+01
	1.707873E+00	4.357793E+01
	1.708247E+00	4.357822E+01
	1.708754E+00	4.357829E+01
	1.709053E+00	4.357841E+01
	1.709092E+00	4.357844E+01
	1.709122E+00	4.357840E+01
	1.709364E+00	4.357815E+01
	1.709545E+00	4.357789E+01
	1.709791E+00	4.357756E+01
	1.709989E+00	4.357729E+01
	1.710500E+00	4.357677E+01
	1.710935E+00	4.357629E+01
	1.711439E+00	4.357575E+01
	1.711602E+00	4.357567E+01
	1.711778E+00	4.357558E+01
	1.711893E+00	4.357551E+01
	1.711982E+00	4.357540E+01
	1.712083E+00	4.357538E+01
	1.712232E+00	4.357528E+01
	1.712347E+00	4.357522E+01
	1.712463E+00	4.357508E+01
	1.712579E+00	4.357490E+01
	1.712608E+00	4.357476E+01
	1.712704E+00	4.357460E+01
	1.712872E+00	4.357456E+01
	1.713122E+00	4.357449E+01
	1.713191E+00	4.357439E+01
	1.713388E+00	4.357421E+01
	1.713470E+00	4.357411E+01
	1.713417E+00	4.357402E+01
	1.713458E+00	4.357393E+01
	1.713446E+00	4.357383E+01
	1.713373E+00	4.357367E+01
	1.713401E+00	4.357356E+01
	1.713632E+00	4.357336E+01
	1.713788E+00	4.357324E+01
	1.714046E+00	4.357310E+01
	1.714309E+00	4.357300E+01
	1.714466E+00	4.357286E+01
	1.714501E+00	4.357270E+01
	1.714622E+00	4.357267E+01
	1.714745E+00	4.357258E+01
	1.714712E+00	4.357248E+01
	1.714800E+00	4.357239E+01
	1.714788E+00	4.357230E+01
	1.714708E+00	4.357221E+01
	1.714669E+00	4.357206E+01
	1.714771E+00	4.357199E+01
	1.714807E+00	4.357178E+01
	1.714849E+00	4.357156E+01
	1.715033E+00	4.357138E+01
	1.715166E+00	4.357124E+01
	1.715255E+00	4.357112E+01
	1.715475E+00	4.357096E+01
	1.715623E+00	4.357082E+01
	1.715779E+00	4.357060E+01
	1.715852E+00	4.357053E+01
	1.716057E+00	4.357050E+01
	1.716124E+00	4.357040E+01
	1.716285E+00	4.357030E+01
	1.716323E+00	4.357019E+01
	1.716729E+00	4.356976E+01
	1.717165E+00	4.356930E+01
	1.717483E+00	4.356893E+01
	1.717955E+00	4.356849E+01
	1.718273E+00	4.356811E+01
	1.718782E+00	4.356755E+01
	1.719174E+00	4.356707E+01
	1.718950E+00	4.356687E+01
	1.719348E+00	4.356645E+01
	1.719458E+00	4.356641E+01
	1.719569E+00	4.356634E+01
	1.719722E+00	4.356633E+01
	1.719958E+00	4.356612E+01
	1.720126E+00	4.356604E+01
	1.720185E+00	4.356599E+01
	1.720436E+00	4.356575E+01
	1.720864E+00	4.356536E+01
	1.720946E+00	4.356521E+01
	1.721684E+00	4.356442E+01
	1.722730E+00	4.356418E+01
	1.723147E+00	4.356409E+01
	1.723448E+00	4.356400E+01
	1.723858E+00	4.356382E+01
	1.724658E+00	4.356347E+01
	1.725030E+00	4.356347E+01
	1.725352E+00	4.356338E+01
	1.725807E+00	4.356320E+01
	1.726349E+00	4.356306E+01
	1.726949E+00	4.356293E+01
	1.727131E+00	4.356294E+01
	1.728455E+00	4.356267E+01
	1.729032E+00	4.356264E+01
	1.729932E+00	4.356244E+01
	1.730848E+00	4.356215E+01
	1.731837E+00	4.356184E+01
	1.732327E+00	4.356171E+01
	1.732694E+00	4.356164E+01
	1.734175E+00	4.356233E+01
	1.734511E+00	4.356184E+01
	1.734721E+00	4.356138E+01
	1.734838E+00	4.356108E+01
	1.735116E+00	4.356073E+01
	1.735627E+00	4.356032E+01
	1.736276E+00	4.355994E+01
	1.736805E+00	4.355966E+01
	1.736969E+00	4.355954E+01
	1.737121E+00	4.355934E+01
	1.737426E+00	4.355886E+01
	1.737695E+00	4.355835E+01
	1.737766E+00	4.355811E+01
	1.737749E+00	4.355793E+01
	1.737669E+00	4.355776E+01
	1.737540E+00	4.355752E+01
	1.737375E+00	4.355707E+01
	1.737334E+00	4.355683E+01
	1.737335E+00	4.355672E+01
	1.737368E+00	4.355661E+01
	1.737489E+00	4.355641E+01
	1.737678E+00	4.355624E+01
	1.738026E+00	4.355586E+01
	1.738154E+00	4.355568E+01
	1.738198E+00	4.355558E+01
	1.738276E+00	4.355535E+01
	1.738309E+00	4.355515E+01
	1.738344E+00	4.355480E+01
	1.738371E+00	4.355462E+01
	1.738426E+00	4.355384E+01
	1.738441E+00	4.355369E+01
	1.738462E+00	4.355346E+01
	1.738583E+00	4.355323E+01
	1.738887E+00	4.355283E+01
	1.739071E+00	4.355263E+01
	1.739286E+00	4.355246E+01
	1.739613E+00	4.355228E+01
	1.740448E+00	4.355184E+01
	1.741094E+00	4.355145E+01
	1.741946E+00	4.355079E+01
	1.742632E+00	4.355030E+01
	1.743799E+00	4.354942E+01
	1.744107E+00	4.354916E+01
	1.744321E+00	4.354892E+01
	1.744584E+00	4.354848E+01
	1.744649E+00	4.354824E+01
	1.744716E+00	4.354700E+01
	1.744773E+00	4.354673E+01
	1.744974E+00	4.354619E+01
	1.745207E+00	4.354576E+01
	1.745572E+00	4.354575E+01
	1.745590E+00	4.354594E+01
	1.745613E+00	4.354603E+01
	1.745722E+00	4.354599E+01
	1.745831E+00	4.354595E+01
	1.746719E+00	4.354567E+01
	1.746828E+00	4.354560E+01
	1.747196E+00	4.354526E+01
	1.747313E+00	4.354516E+01
	1.747468E+00	4.354496E+01
	1.747574E+00	4.354477E+01
	1.747635E+00	4.354464E+01
	1.747998E+00	4.354445E+01
	1.748324E+00	4.354428E+01
	1.748461E+00	4.354417E+01
	1.748549E+00	4.354415E+01
	1.748662E+00	4.354415E+01
	1.748888E+00	4.354393E+01
	1.749049E+00	4.354391E+01
	1.749153E+00	4.354388E+01
	1.749401E+00	4.354393E+01
	1.749697E+00	4.354400E+01
	1.749990E+00	4.354403E+01
	1.750290E+00	4.354406E+01
	1.750446E+00	4.354411E+01
	1.750626E+00	4.354415E+01
	1.750781E+00	4.354423E+01
	1.751021E+00	4.354428E+01
	1.751233E+00	4.354436E+01
	1.751445E+00	4.354436E+01
	1.751789E+00	4.354441E+01
	1.752262E+00	4.354445E+01
	1.753319E+00	4.354452E+01
	1.753748E+00	4.354457E+01
	1.753956E+00	4.354456E+01
	1.754409E+00	4.354451E+01
	1.754634E+00	4.354448E+01
	1.754826E+00	4.354448E+01
	1.755083E+00	4.354445E+01
	1.755204E+00	4.354443E+01
	1.755360E+00	4.354444E+01
	1.755793E+00	4.354445E+01
	1.756013E+00	4.354446E+01
	1.755970E+00	4.354471E+01
	1.756117E+00	4.354488E+01
	1.756386E+00	4.354527E+01
	1.756580E+00	4.354549E+01
	1.756751E+00	4.354566E+01
	1.756813E+00	4.354580E+01
	1.756868E+00	4.354599E+01
	1.756890E+00	4.354617E+01
	1.756965E+00	4.354627E+01
	1.757184E+00	4.354639E+01
	1.757331E+00	4.354657E+01
	1.757418E+00	4.354667E+01
	1.757489E+00	4.354683E+01
	1.757548E+00	4.354689E+01
	1.757640E+00	4.354693E+01
	1.757763E+00	4.354705E+01
	1.757886E+00	4.354722E+01
	1.757989E+00	4.354732E+01
	1.758328E+00	4.354745E+01
	1.758356E+00	4.354752E+01
	1.758543E+00	4.354761E+01
	1.758631E+00	4.354763E+01
	1.758787E+00	4.354765E+01
	1.758977E+00	4.354789E+01
	1.759134E+00	4.354789E+01
	1.759218E+00	4.354787E+01
	1.759330E+00	4.354789E+01
	1.759371E+00	4.354785E+01
	1.759491E+00	4.354786E+01
	1.759696E+00	4.354824E+01
	1.759870E+00	4.354841E+01
	1.760186E+00	4.354853E+01
	1.760317E+00	4.354863E+01
	1.760448E+00	4.354875E+01
	1.760491E+00	4.354883E+01
	1.760443E+00	4.354891E+01
	1.760385E+00	4.354907E+01
	1.760380E+00	4.354918E+01
	1.760579E+00	4.354932E+01
	1.760727E+00	4.354954E+01
	1.760846E+00	4.354962E+01
	1.760883E+00	4.354971E+01
	1.760867E+00	4.354981E+01
	1.760866E+00	4.354989E+01
	1.760944E+00	4.355006E+01
	1.760973E+00	4.355015E+01
	1.761073E+00	4.355036E+01
	1.761101E+00	4.355053E+01
	1.761059E+00	4.355062E+01
	1.761024E+00	4.355073E+01
	1.761034E+00	4.355082E+01
	1.761120E+00	4.355088E+01
	1.761213E+00	4.355097E+01
	1.761262E+00	4.355105E+01
	1.761314E+00	4.355110E+01
	1.761399E+00	4.355113E+01
	1.762385E+00	4.355143E+01
	1.762474E+00	4.355144E+01
	1.762658E+00	4.355137E+01
	1.762800E+00	4.355137E+01
	1.762851E+00	4.355140E+01
	1.762916E+00	4.355148E+01
	1.763113E+00	4.355159E+01
	1.763464E+00	4.355183E+01
	1.763542E+00	4.355199E+01
	1.763396E+00	4.355255E+01
	1.763518E+00	4.355256E+01
	1.763488E+00	4.355275E+01
	1.764433E+00	4.355227E+01
	1.765461E+00	4.355178E+01
	1.766369E+00	4.355132E+01
	1.766637E+00	4.355115E+01
	1.767145E+00	4.355075E+01
	1.767451E+00	4.355058E+01
	1.767859E+00	4.355051E+01
	1.768410E+00	4.355019E+01
	1.768931E+00	4.354997E+01
	1.769637E+00	4.354976E+01
	1.769986E+00	4.354965E+01
	1.770299E+00	4.354950E+01
	1.771178E+00	4.354896E+01
	1.771402E+00	4.354882E+01
	1.771537E+00	4.354865E+01
	1.771725E+00	4.354830E+01
	1.771889E+00	4.354819E+01
	1.772853E+00	4.354737E+01
	1.773122E+00	4.354710E+01
	1.773443E+00	4.354685E+01
	1.773943E+00	4.354646E+01
	1.774323E+00	4.354628E+01
	1.774731E+00	4.354615E+01
	1.775950E+00	4.354581E+01
	1.776997E+00	4.354547E+01
	1.777127E+00	4.354561E+01
	1.777173E+00	4.354566E+01
	1.777214E+00	4.354574E+01
	1.777307E+00	4.354594E+01
	1.779530E+00	4.354534E+01
	1.779336E+00	4.354510E+01
	1.780265E+00	4.354462E+01
	1.781895E+00	4.354403E+01
	1.781819E+00	4.354383E+01
	1.782199E+00	4.354374E+01
	1.783670E+00	4.354398E+01
	1.784631E+00	4.354412E+01
	1.786759E+00	4.354391E+01
	1.786675E+00	4.354366E+01
	1.786687E+00	4.354342E+01
	1.786698E+00	4.354316E+01
	1.786627E+00	4.354290E+01
	1.786491E+00	4.354274E+01
	1.786427E+00	4.354168E+01
	1.786602E+00	4.354160E+01
	1.786804E+00	4.354163E+01
	1.786842E+00	4.354148E+01
	1.787286E+00	4.354121E+01
	1.787564E+00	4.354099E+01
	1.787712E+00	4.354086E+01
	1.787989E+00	4.354076E+01
	1.788247E+00	4.354059E+01
	1.788866E+00	4.354035E+01
	1.789456E+00	4.354014E+01
	1.789907E+00	4.354004E+01
	1.790211E+00	4.353995E+01
	1.790506E+00	4.353991E+01
	1.790746E+00	4.353981E+01
	1.790258E+00	4.353939E+01
	1.789612E+00	4.353892E+01
	1.788526E+00	4.353873E+01
	1.787302E+00	4.353825E+01
	1.787851E+00	4.353723E+01
	1.787429E+00	4.353612E+01
	1.787437E+00	4.353523E+01
	1.787882E+00	4.353435E+01
	1.788369E+00	4.353323E+01
	1.788617E+00	4.353290E+01
	1.789050E+00	4.353238E+01
	1.789307E+00	4.353191E+01
	1.789999E+00	4.353110E+01
	1.789997E+00	4.353087E+01
	1.789846E+00	4.353072E+01
	1.789823E+00	4.353025E+01
	1.789837E+00	4.352984E+01
	1.789798E+00	4.352962E+01
	1.789474E+00	4.352936E+01
	1.788798E+00	4.352878E+01
	1.788634E+00	4.352845E+01
	1.788638E+00	4.352792E+01
	1.788711E+00	4.352778E+01
	1.789895E+00	4.352677E+01
	1.790046E+00	4.352551E+01
	1.790233E+00	4.352493E+01
	1.791083E+00	4.352396E+01
	1.791658E+00	4.352245E+01
	1.792554E+00	4.352137E+01
	1.792467E+00	4.351951E+01
	1.793006E+00	4.351875E+01
	1.794021E+00	4.351752E+01
	1.793940E+00	4.351673E+01
	1.795632E+00	4.351576E+01
	1.795782E+00	4.351558E+01
	1.795354E+00	4.351555E+01
	1.794550E+00	4.351457E+01
	1.792394E+00	4.351322E+01
	1.793549E+00	4.351246E+01
	1.794541E+00	4.351182E+01
	1.795105E+00	4.351144E+01
	1.795419E+00	4.351130E+01
	1.794370E+00	4.351010E+01
	1.793318E+00	4.350885E+01
	1.792266E+00	4.350761E+01
	1.791214E+00	4.350636E+01
	1.790876E+00	4.350659E+01
	1.790557E+00	4.350679E+01
	1.787848E+00	4.350828E+01
	1.786517E+00	4.350905E+01
	1.786159E+00	4.350890E+01
	1.785930E+00	4.350881E+01
	1.785683E+00	4.350879E+01
	1.785136E+00	4.350880E+01
	1.784911E+00	4.350891E+01
	1.784764E+00	4.350896E+01
	1.784593E+00	4.350898E+01
	1.784387E+00	4.350893E+01
	1.784212E+00	4.350883E+01
	1.784118E+00	4.350874E+01
	1.783873E+00	4.350858E+01
	1.783675E+00	4.350833E+01
	1.783630E+00	4.350814E+01
	1.783620E+00	4.350791E+01
	1.783650E+00	4.350784E+01
	1.783647E+00	4.350750E+01
	1.783680E+00	4.350712E+01
	1.783482E+00	4.350697E+01
	1.783441E+00	4.350687E+01
	1.783273E+00	4.350667E+01
	1.782968E+00	4.350646E+01
	1.782810E+00	4.350636E+01
	1.782494E+00	4.350621E+01
	1.782350E+00	4.350586E+01
	1.782312E+00	4.350552E+01
	1.782333E+00	4.350516E+01
	1.782388E+00	4.350500E+01
	1.782577E+00	4.350490E+01
	1.782631E+00	4.350481E+01
	1.782637E+00	4.350473E+01
	1.782591E+00	4.350467E+01
	1.782604E+00	4.350453E+01
	1.782512E+00	4.350428E+01
	1.782490E+00	4.350416E+01
	1.782486E+00	4.350394E+01
	1.782358E+00	4.350375E+01
	1.782250E+00	4.350328E+01
	1.782188E+00	4.350307E+01
	1.781357E+00	4.350256E+01
	1.780812E+00	4.350235E+01
	1.780365E+00	4.350228E+01
	1.780260E+00	4.350224E+01
	1.780160E+00	4.350220E+01
	1.779796E+00	4.350213E+01
	1.779650E+00	4.350203E+01
	1.779563E+00	4.350185E+01
	1.779475E+00	4.350179E+01
	1.778546E+00	4.350171E+01
	1.777952E+00	4.350167E+01
	1.778220E+00	4.350136E+01
	1.777548E+00	4.350150E+01
	1.777118E+00	4.350158E+01
	1.776275E+00	4.350170E+01
	1.775751E+00	4.350180E+01
	1.774730E+00	4.350207E+01
	1.773898E+00	4.350235E+01
	1.772269E+00	4.350286E+01
	1.771876E+00	4.350209E+01
	1.771723E+00	4.350215E+01
	1.771413E+00	4.350187E+01
	1.771152E+00	4.350149E+01
	1.770951E+00	4.350098E+01
	1.771099E+00	4.350092E+01
	1.770341E+00	4.349967E+01
	1.769977E+00	4.349927E+01
	1.770029E+00	4.349740E+01
	1.769806E+00	4.349548E+01
	1.769861E+00	4.349452E+01
	1.769713E+00	4.349268E+01
	1.769579E+00	4.349133E+01
	1.769429E+00	4.348964E+01
	1.769763E+00	4.348847E+01
	1.769723E+00	4.348835E+01
	1.769871E+00	4.348816E+01
	1.768690E+00	4.348702E+01
	1.768530E+00	4.348751E+01
	1.768172E+00	4.348737E+01
	1.766837E+00	4.348679E+01
	1.766178E+00	4.348653E+01
	1.766113E+00	4.348651E+01
	1.766073E+00	4.348653E+01
	1.764932E+00	4.348735E+01
	1.764537E+00	4.348716E+01
	1.763988E+00	4.348786E+01
	1.763972E+00	4.348791E+01
	1.763138E+00	4.348911E+01
	1.762570E+00	4.348882E+01
	1.762535E+00	4.348882E+01
	1.760892E+00	4.349058E+01
	1.760158E+00	4.349113E+01
	1.760112E+00	4.349113E+01
	1.760069E+00	4.349118E+01
	1.760066E+00	4.349124E+01
	1.760138E+00	4.349141E+01
	1.760207E+00	4.349143E+01
	1.760661E+00	4.349174E+01
	1.761024E+00	4.349193E+01
	1.761123E+00	4.349197E+01
	1.760719E+00	4.349241E+01
	1.760642E+00	4.349246E+01
	1.760476E+00	4.349250E+01
	1.759115E+00	4.349303E+01
	1.758774E+00	4.349321E+01
	1.758613E+00	4.349328E+01
	1.758113E+00	4.349358E+01
	1.757911E+00	4.349374E+01
	1.757825E+00	4.349383E+01
	1.757693E+00	4.349403E+01
	1.757593E+00	4.349415E+01
	1.757577E+00	4.349422E+01
	1.757691E+00	4.349427E+01
	1.757963E+00	4.349445E+01
	1.758400E+00	4.349484E+01
	1.758955E+00	4.349537E+01
	1.759156E+00	4.349553E+01
	1.759368E+00	4.349563E+01
	1.759834E+00	4.349597E+01
	1.760029E+00	4.349613E+01
	1.760534E+00	4.349665E+01
	1.758830E+00	4.349693E+01
	1.758801E+00	4.349696E+01
	1.759042E+00	4.349781E+01
	1.757890E+00	4.349775E+01
	1.757740E+00	4.349777E+01
	1.755396E+00	4.349829E+01
	1.754295E+00	4.349861E+01
	1.754276E+00	4.349864E+01
	1.754312E+00	4.349875E+01
	1.754308E+00	4.349885E+01
	1.754284E+00	4.349887E+01
	1.753848E+00	4.349896E+01
	1.753204E+00	4.349921E+01
	1.752968E+00	4.349935E+01
	1.751834E+00	4.350024E+01
	1.751682E+00	4.350032E+01
	1.750997E+00	4.350041E+01
	1.750581E+00	4.350049E+01
	1.750375E+00	4.350056E+01
	1.749955E+00	4.350074E+01
	1.749798E+00	4.350079E+01
	1.748242E+00	4.350153E+01
	1.748185E+00	4.350158E+01
	1.747723E+00	4.350184E+01
	1.747288E+00	4.350214E+01
	1.746919E+00	4.350227E+01
	1.746550E+00	4.350246E+01
	1.746262E+00	4.350258E+01
	1.745732E+00	4.350261E+01
	1.745561E+00	4.350260E+01
	1.745371E+00	4.350256E+01
	1.744642E+00	4.350235E+01
	1.744149E+00	4.350228E+01
	1.743937E+00	4.350229E+01
	1.743730E+00	4.350233E+01
	1.743613E+00	4.350237E+01
	1.743464E+00	4.350252E+01
	1.743357E+00	4.350258E+01
	1.743058E+00	4.350267E+01
	1.742948E+00	4.350277E+01
	1.742748E+00	4.350285E+01
	1.742543E+00	4.350305E+01
	1.741980E+00	4.350341E+01
	1.741847E+00	4.350347E+01
	1.741607E+00	4.350354E+01
	1.739894E+00	4.350392E+01
	1.739741E+00	4.350394E+01
	1.739491E+00	4.350395E+01
	1.738966E+00	4.350389E+01
	1.738616E+00	4.350391E+01
	1.736630E+00	4.350427E+01
	1.736466E+00	4.350431E+01
	1.736049E+00	4.350445E+01
	1.735410E+00	4.350462E+01
	1.735274E+00	4.350464E+01
	1.732579E+00	4.350452E+01
	1.732482E+00	4.350453E+01
	1.731557E+00	4.350476E+01
	1.729551E+00	4.350523E+01
	1.728723E+00	4.350553E+01
	1.728685E+00	4.350567E+01
	1.728157E+00	4.350660E+01
	1.728059E+00	4.350665E+01
	1.727680E+00	4.350671E+01
	1.726248E+00	4.350696E+01
	1.726197E+00	4.350718E+01
	1.726274E+00	4.350747E+01
	1.726203E+00	4.350786E+01
	1.726241E+00	4.350830E+01
	1.726257E+00	4.350854E+01
	1.725564E+00	4.350882E+01
	1.726465E+00	4.350962E+01
	1.728183E+00	4.351125E+01
	1.729877E+00	4.351278E+01
	1.728792E+00	4.351375E+01
	1.728090E+00	4.351441E+01
	1.727211E+00	4.351493E+01
	1.726354E+00	4.351520E+01
	1.724991E+00	4.351562E+01
	1.724461E+00	4.351579E+01
	1.724504E+00	4.351587E+01
	1.724627E+00	4.351603E+01
	1.724967E+00	4.351653E+01
	1.725017E+00	4.351664E+01
	1.725090E+00	4.351705E+01
	1.726831E+00	4.351960E+01
	1.727626E+00	4.351944E+01
	1.727682E+00	4.351984E+01
	1.727759E+00	4.352067E+01
	1.727740E+00	4.352115E+01
	1.727703E+00	4.352150E+01
	1.729778E+00	4.352192E+01
	1.729897E+00	4.352190E+01
	1.730343E+00	4.352230E+01
	1.730720E+00	4.352233E+01
	1.733650E+00	4.352263E+01
	1.735189E+00	4.352298E+01
	1.735493E+00	4.352307E+01
	1.736146E+00	4.352327E+01
	1.736648E+00	4.352341E+01
	1.736726E+00	4.352349E+01
	1.736931E+00	4.352350E+01
	1.737017E+00	4.352356E+01
	1.737122E+00	4.352361E+01
	1.737980E+00	4.352461E+01
	1.738911E+00	4.352479E+01
	1.738949E+00	4.352503E+01
	1.739253E+00	4.352508E+01
	1.740114E+00	4.352504E+01
	1.740244E+00	4.352522E+01
	1.740375E+00	4.352541E+01
	1.740530E+00	4.352580E+01
	1.740580E+00	4.352603E+01
	1.740643E+00	4.352639E+01
	1.740881E+00	4.352646E+01
	1.741083E+00	4.352672E+01
	1.741108E+00	4.352685E+01
	1.740939E+00	4.352721E+01
	1.740541E+00	4.352737E+01
	1.740335E+00	4.352736E+01
	1.740433E+00	4.352752E+01
	1.740543E+00	4.352776E+01
	1.740615E+00	4.352786E+01
	1.740785E+00	4.352804E+01
	1.740824E+00	4.352814E+01
	1.740803E+00	4.352822E+01
	1.740635E+00	4.352857E+01
	1.741341E+00	4.352875E+01
	1.741519E+00	4.352882E+01
	1.741651E+00	4.352890E+01
	1.741808E+00	4.352907E+01
	1.742325E+00	4.352968E+01
	1.741654E+00	4.352993E+01
	1.740964E+00	4.353008E+01
	1.741300E+00	4.353092E+01
	1.740520E+00	4.353142E+01
	1.740670E+00	4.353163E+01
	1.739722E+00	4.353240E+01
	1.739374E+00	4.353210E+01
	1.737042E+00	4.353230E+01
	1.737074E+00	4.353241E+01
	1.735440E+00	4.353285E+01
	1.735086E+00	4.353295E+01
	1.734945E+00	4.353295E+01
	1.735331E+00	4.353346E+01
	1.736387E+00	4.353437E+01
	1.736591E+00	4.353458E+01
	1.736680E+00	4.353468E+01
	1.736679E+00	4.353477E+01
	1.736606E+00	4.353493E+01
	1.736728E+00	4.353500E+01
	1.736047E+00	4.353501E+01
	1.735976E+00	4.353506E+01
	1.737072E+00	4.353649E+01
	1.735818E+00	4.353672E+01
	1.735125E+00	4.353676E+01
	1.735067E+00	4.353680E+01
	1.735610E+00	4.353762E+01
	1.733017E+00	4.353828E+01
	1.729735E+00	4.353913E+01
	1.730086E+00	4.353993E+01
	1.729561E+00	4.354040E+01
	1.727992E+00	4.354071E+01
	1.727294E+00	4.354058E+01
	1.726214E+00	4.354073E+01
	1.725367E+00	4.354063E+01
	1.724055E+00	4.354094E+01
	1.722900E+00	4.354147E+01
	1.720657E+00	4.354257E+01
	1.718739E+00	4.354355E+01
	1.718551E+00	4.354371E+01
	1.718054E+00	4.354456E+01
	1.717579E+00	4.354570E+01
	1.717507E+00	4.354582E+01
	1.716819E+00	4.354657E+01
	1.715652E+00	4.354721E+01
	1.714999E+00	4.354819E+01
	1.714084E+00	4.354828E+01
	1.713556E+00	4.354833E+01
	1.713372E+00	4.354846E+01
	1.712797E+00	4.354884E+01
	1.712660E+00	4.354893E+01
	1.712533E+00	4.354898E+01
	1.712346E+00	4.354912E+01
	1.712275E+00	4.354913E+01
	1.712168E+00	4.354927E+01
	1.712050E+00	4.354933E+01
	1.711951E+00	4.354937E+01
	1.711864E+00	4.354944E+01
	1.711683E+00	4.354956E+01
	1.711599E+00	4.354963E+01
	1.711528E+00	4.354971E+01
	1.711426E+00	4.354970E+01
	1.711286E+00	4.354979E+01
	1.711260E+00	4.354985E+01
	1.711127E+00	4.354991E+01
	1.711071E+00	4.354995E+01
	1.710990E+00	4.355003E+01
	1.710869E+00	4.355010E+01
	1.710468E+00	4.355031E+01
	1.709707E+00	4.355072E+01
	1.709376E+00	4.355081E+01
	1.708437E+00	4.355111E+01
	1.708142E+00	4.355119E+01
	1.708043E+00	4.355123E+01
	1.707938E+00	4.355124E+01
	1.707731E+00	4.355125E+01
	1.707666E+00	4.355129E+01
	1.707542E+00	4.355134E+01
	1.707418E+00	4.355134E+01
	1.707205E+00	4.355138E+01
	1.707124E+00	4.355142E+01
	1.706988E+00	4.355139E+01
	1.706867E+00	4.355143E+01
	1.706605E+00	4.355147E+01
	1.706522E+00	4.355142E+01
	1.706262E+00	4.355144E+01
	1.706166E+00	4.355149E+01
	1.705885E+00	4.355152E+01
	1.705765E+00	4.355147E+01
	1.705580E+00	4.355146E+01
	1.704927E+00	4.355152E+01
	1.703134E+00	4.355172E+01
	1.701929E+00	4.355183E+01
END
END
