polygon
1
	9.032000E-03	4.291237E+01
	1.383850E-02	4.291245E+01
	2.216090E-02	4.290805E+01
	2.110280E-02	4.290450E+01
	2.094870E-02	4.290215E+01
	2.142850E-02	4.289885E+01
	2.351150E-02	4.289723E+01
	2.431040E-02	4.289483E+01
	2.937330E-02	4.289227E+01
	3.278040E-02	4.289143E+01
	3.272600E-02	4.289098E+01
	3.448580E-02	4.289026E+01
	3.472280E-02	4.288825E+01
	3.514990E-02	4.288806E+01
	3.510270E-02	4.288766E+01
	3.538280E-02	4.288734E+01
	3.539630E-02	4.288581E+01
	3.507330E-02	4.288538E+01
	3.476430E-02	4.288435E+01
	3.461600E-02	4.288429E+01
	3.455280E-02	4.288379E+01
	3.417780E-02	4.288331E+01
	3.466880E-02	4.288315E+01
	3.572860E-02	4.288264E+01
	3.621820E-02	4.288269E+01
	3.653630E-02	4.288282E+01
	3.673110E-02	4.288301E+01
	3.747830E-02	4.288308E+01
	3.931860E-02	4.288371E+01
	4.017790E-02	4.288401E+01
	4.102460E-02	4.288520E+01
	4.152610E-02	4.288541E+01
	4.203350E-02	4.288547E+01
	4.307190E-02	4.288608E+01
	4.392060E-02	4.288666E+01
	4.517230E-02	4.288781E+01
	4.610930E-02	4.288886E+01
	4.608810E-02	4.288943E+01
	4.650180E-02	4.289028E+01
	4.691910E-02	4.289047E+01
	4.729850E-02	4.289074E+01
	4.832380E-02	4.289154E+01
	4.907390E-02	4.289192E+01
	4.993210E-02	4.289219E+01
	5.060030E-02	4.289259E+01
	5.149920E-02	4.289300E+01
	5.210410E-02	4.289324E+01
	5.253510E-02	4.289317E+01
	5.308990E-02	4.289320E+01
	5.345410E-02	4.289337E+01
	5.444270E-02	4.289386E+01
	5.481720E-02	4.289407E+01
	5.567980E-02	4.289455E+01
	5.594350E-02	4.289470E+01
	5.610420E-02	4.289495E+01
	5.787760E-02	4.289582E+01
	5.835300E-02	4.289612E+01
	5.926910E-02	4.289639E+01
	6.006630E-02	4.289675E+01
	6.088010E-02	4.289666E+01
	6.143900E-02	4.289658E+01
	6.216420E-02	4.289670E+01
	6.294880E-02	4.289677E+01
	6.360230E-02	4.289695E+01
	6.426450E-02	4.289720E+01
	6.471420E-02	4.289725E+01
	6.530990E-02	4.289742E+01
	6.594640E-02	4.289774E+01
	6.642980E-02	4.289782E+01
	6.695960E-02	4.289790E+01
	6.804670E-02	4.289794E+01
	6.891070E-02	4.289806E+01
	6.952320E-02	4.289840E+01
	6.964940E-02	4.289847E+01
	6.990110E-02	4.289860E+01
	7.032230E-02	4.289871E+01
	7.127380E-02	4.289866E+01
	7.185560E-02	4.289859E+01
	7.269770E-02	4.289867E+01
	7.337570E-02	4.289881E+01
	7.390450E-02	4.289892E+01
	7.437910E-02	4.289923E+01
	7.454410E-02	4.289947E+01
	7.515420E-02	4.289956E+01
	7.558730E-02	4.289975E+01
	7.571980E-02	4.289992E+01
	7.625760E-02	4.290010E+01
	7.673140E-02	4.290012E+01
	7.711680E-02	4.290004E+01
	7.781570E-02	4.290024E+01
	7.827420E-02	4.290037E+01
	7.854160E-02	4.290034E+01
	7.867380E-02	4.290052E+01
	7.883940E-02	4.290074E+01
	7.921850E-02	4.290082E+01
	7.978650E-02	4.290081E+01
	8.028680E-02	4.290092E+01
	8.081750E-02	4.290111E+01
	8.200330E-02	4.290155E+01
	8.246200E-02	4.290173E+01
	8.302920E-02	4.290205E+01
	8.361010E-02	4.290200E+01
	8.425850E-02	4.290200E+01
	8.530740E-02	4.290214E+01
	8.596420E-02	4.290223E+01
	8.644810E-02	4.290230E+01
	8.712420E-02	4.290249E+01
	8.778000E-02	4.290260E+01
	8.811770E-02	4.290286E+01
	8.863720E-02	4.290291E+01
	8.895590E-02	4.290306E+01
	8.922240E-02	4.290306E+01
	8.951740E-02	4.290291E+01
	9.011760E-02	4.290296E+01
	9.063670E-02	4.290333E+01
	9.124740E-02	4.290373E+01
	9.187200E-02	4.290375E+01
	9.244810E-02	4.290383E+01
	9.310870E-02	4.290382E+01
	9.351690E-02	4.290374E+01
	9.408590E-02	4.290370E+01
	9.474890E-02	4.290393E+01
	9.538230E-02	4.290403E+01
	9.593430E-02	4.290414E+01
	9.635370E-02	4.290438E+01
	9.693940E-02	4.290483E+01
	9.772990E-02	4.290475E+01
	9.825540E-02	4.290463E+01
	9.920660E-02	4.290428E+01
	9.968550E-02	4.290417E+01
	1.008504E-01	4.290399E+01
	1.012451E-01	4.290396E+01
	1.019069E-01	4.290423E+01
	1.036619E-01	4.290501E+01
	1.049530E-01	4.290548E+01
	1.061910E-01	4.290583E+01
	1.079564E-01	4.290601E+01
	1.095695E-01	4.290624E+01
	1.105422E-01	4.290656E+01
	1.120552E-01	4.290699E+01
	1.130656E-01	4.290691E+01
	1.145067E-01	4.290678E+01
	1.164610E-01	4.290686E+01
	1.183044E-01	4.290681E+01
	1.205612E-01	4.290654E+01
	1.220141E-01	4.290640E+01
	1.236910E-01	4.290647E+01
	1.254819E-01	4.290690E+01
	1.271872E-01	4.290683E+01
	1.286442E-01	4.290657E+01
	1.303832E-01	4.290621E+01
	1.310554E-01	4.290620E+01
	1.314922E-01	4.290635E+01
	1.316146E-01	4.290642E+01
	1.319083E-01	4.290649E+01
	1.326337E-01	4.290675E+01
	1.339041E-01	4.290621E+01
	1.342864E-01	4.290557E+01
	1.350809E-01	4.290570E+01
	1.352368E-01	4.290563E+01
	1.357399E-01	4.290541E+01
	1.359665E-01	4.290540E+01
	1.364474E-01	4.290538E+01
	1.406166E-01	4.290539E+01
	1.394487E-01	4.290629E+01
	1.395509E-01	4.290667E+01
	1.407538E-01	4.290640E+01
	1.400190E-01	4.290717E+01
	1.411743E-01	4.290726E+01
	1.407531E-01	4.290833E+01
	1.420525E-01	4.290801E+01
	1.435907E-01	4.290805E+01
	1.447391E-01	4.290823E+01
	1.454179E-01	4.290845E+01
	1.453290E-01	4.290909E+01
	1.446947E-01	4.291034E+01
	1.445571E-01	4.291045E+01
	1.436037E-01	4.291125E+01
	1.434796E-01	4.291136E+01
	1.433019E-01	4.291260E+01
	1.436176E-01	4.291304E+01
	1.448518E-01	4.291424E+01
	1.462033E-01	4.291610E+01
	1.462667E-01	4.291641E+01
	1.471596E-01	4.291696E+01
	1.473231E-01	4.291726E+01
	1.473159E-01	4.291791E+01
	1.471619E-01	4.291827E+01
	1.459828E-01	4.291852E+01
	1.446863E-01	4.291904E+01
	1.430462E-01	4.292011E+01
	1.427047E-01	4.292060E+01
	1.419899E-01	4.292132E+01
	1.418504E-01	4.292242E+01
	1.419206E-01	4.292346E+01
	1.420032E-01	4.292369E+01
	1.415059E-01	4.292414E+01
	1.406991E-01	4.292465E+01
	1.393235E-01	4.292528E+01
	1.397255E-01	4.292906E+01
	1.392305E-01	4.292943E+01
	1.389979E-01	4.292990E+01
	1.388309E-01	4.292993E+01
	1.386210E-01	4.293022E+01
	1.387216E-01	4.293179E+01
	1.390887E-01	4.293257E+01
	1.393097E-01	4.293304E+01
	1.395006E-01	4.293345E+01
	1.404858E-01	4.293554E+01
	1.410092E-01	4.293599E+01
	1.413612E-01	4.293658E+01
	1.412674E-01	4.293693E+01
	1.412645E-01	4.293693E+01
	1.412417E-01	4.293693E+01
	1.412265E-01	4.293693E+01
	1.412115E-01	4.293694E+01
	1.412031E-01	4.293695E+01
	1.411981E-01	4.293696E+01
	1.412003E-01	4.293698E+01
	1.412091E-01	4.293699E+01
	1.412168E-01	4.293700E+01
	1.411936E-01	4.293703E+01
	1.412383E-01	4.293738E+01
	1.397031E-01	4.293767E+01
	1.388341E-01	4.293737E+01
	1.380121E-01	4.293738E+01
	1.371180E-01	4.293709E+01
	1.344620E-01	4.293595E+01
	1.337534E-01	4.293535E+01
	1.310391E-01	4.293604E+01
	1.304892E-01	4.293610E+01
	1.300366E-01	4.293599E+01
	1.281258E-01	4.293491E+01
	1.251852E-01	4.293384E+01
	1.224023E-01	4.293368E+01
	1.212506E-01	4.293385E+01
	1.177212E-01	4.293414E+01
	1.135620E-01	4.293394E+01
	1.121739E-01	4.292948E+01
	1.119259E-01	4.292747E+01
	1.104425E-01	4.292603E+01
	1.089320E-01	4.292629E+01
	1.063678E-01	4.292508E+01
	1.052946E-01	4.292414E+01
	1.031742E-01	4.292446E+01
	1.024071E-01	4.292395E+01
	1.007943E-01	4.292408E+01
	9.962470E-02	4.292382E+01
	9.916040E-02	4.292381E+01
	9.803890E-02	4.292418E+01
	9.662880E-02	4.292462E+01
	9.559320E-02	4.292460E+01
	9.495820E-02	4.292438E+01
	9.046830E-02	4.292500E+01
	8.663130E-02	4.291959E+01
	8.238720E-02	4.291937E+01
	7.961140E-02	4.292003E+01
	7.722890E-02	4.291972E+01
	7.529090E-02	4.291994E+01
	7.278820E-02	4.292188E+01
	7.226740E-02	4.292148E+01
	7.000210E-02	4.292185E+01
	6.983830E-02	4.292146E+01
	6.747670E-02	4.292154E+01
	6.578470E-02	4.292187E+01
	6.209520E-02	4.292306E+01
	5.872780E-02	4.292328E+01
	5.528110E-02	4.292465E+01
	5.373770E-02	4.292483E+01
	5.001300E-02	4.292788E+01
	5.030260E-02	4.292967E+01
	4.850910E-02	4.293079E+01
	4.658440E-02	4.293254E+01
	4.594360E-02	4.293247E+01
	4.560040E-02	4.293210E+01
	4.518380E-02	4.293177E+01
	4.457870E-02	4.293076E+01
	4.383180E-02	4.293067E+01
	4.288640E-02	4.293015E+01
	4.275650E-02	4.292981E+01
	4.013660E-02	4.293010E+01
	3.901060E-02	4.293057E+01
	3.796800E-02	4.293073E+01
	3.665460E-02	4.293050E+01
	3.594940E-02	4.293025E+01
	3.514300E-02	4.292984E+01
	3.449540E-02	4.292901E+01
	3.402150E-02	4.292832E+01
	3.256130E-02	4.292818E+01
	3.030220E-02	4.292651E+01
	2.636410E-02	4.292669E+01
	2.605590E-02	4.292353E+01
	2.784940E-02	4.292055E+01
	2.618570E-02	4.291920E+01
	2.356960E-02	4.291846E+01
	2.185320E-02	4.291756E+01
	2.195370E-02	4.291680E+01
	2.059050E-02	4.291664E+01
	1.751360E-02	4.291524E+01
	1.351760E-02	4.291433E+01
	9.032000E-03	4.291237E+01
END
END
