polygon
1
	-7.862615E+01	-5.306373E+00
	-7.862433E+01	-5.306996E+00
	-7.862052E+01	-5.306996E+00
	-7.861544E+01	-5.306917E+00
	-7.860966E+01	-5.307506E+00
	-7.860580E+01	-5.309195E+00
	-7.860524E+01	-5.309441E+00
	-7.860449E+01	-5.309899E+00
	-7.860144E+01	-5.313104E+00
	-7.859808E+01	-5.316512E+00
	-7.859296E+01	-5.321773E+00
	-7.859287E+01	-5.321744E+00
	-7.858987E+01	-5.324882E+00
	-7.858981E+01	-5.324944E+00
	-7.858698E+01	-5.327852E+00
	-7.858317E+01	-5.331817E+00
	-7.857865E+01	-5.335862E+00
	-7.857453E+01	-5.338320E+00
	-7.856850E+01	-5.341651E+00
	-7.856398E+01	-5.344624E+00
	-7.856132E+01	-5.347596E+00
	-7.855998E+01	-5.349192E+00
	-7.855751E+01	-5.352998E+00
	-7.855472E+01	-5.356297E+00
	-7.855289E+01	-5.358350E+00
	-7.855221E+01	-5.358979E+00
	-7.855209E+01	-5.359322E+00
	-7.855169E+01	-5.359838E+00
	-7.855163E+01	-5.360010E+00
	-7.855131E+01	-5.360268E+00
	-7.855122E+01	-5.360238E+00
	-7.855094E+01	-5.360467E+00
	-7.855083E+01	-5.360467E+00
	-7.855042E+01	-5.360809E+00
	-7.854870E+01	-5.361607E+00
	-7.854612E+01	-5.362344E+00
	-7.854439E+01	-5.363082E+00
	-7.854417E+01	-5.363311E+00
	-7.854365E+01	-5.363596E+00
	-7.854133E+01	-5.364735E+00
	-7.853987E+01	-5.365686E+00
	-7.853892E+01	-5.367653E+00
	-7.853860E+01	-5.369112E+00
	-7.853886E+01	-5.370527E+00
	-7.853905E+01	-5.372157E+00
	-7.853721E+01	-5.374505E+00
	-7.853403E+01	-5.377113E+00
	-7.853245E+01	-5.378438E+00
	-7.853124E+01	-5.379834E+00
	-7.853029E+01	-5.380658E+00
	-7.852871E+01	-5.382181E+00
	-7.852794E+01	-5.383386E+00
	-7.852781E+01	-5.383751E+00
	-7.852737E+01	-5.384909E+00
	-7.852642E+01	-5.387320E+00
	-7.852621E+01	-5.387552E+00
	-7.852446E+01	-5.389426E+00
	-7.852350E+01	-5.392262E+00
	-7.852268E+01	-5.394361E+00
	-7.852135E+01	-5.395503E+00
	-7.851957E+01	-5.396392E+00
	-7.851858E+01	-5.398477E+00
	-7.851840E+01	-5.399279E+00
	-7.851862E+01	-5.401149E+00
	-7.851919E+01	-5.402926E+00
	-7.851995E+01	-5.404258E+00
	-7.852049E+01	-5.406238E+00
	-7.852215E+01	-5.408889E+00
	-7.852265E+01	-5.411433E+00
	-7.852269E+01	-5.414519E+00
	-7.852277E+01	-5.416874E+00
	-7.852216E+01	-5.419269E+00
	-7.852159E+01	-5.420569E+00
	-7.851936E+01	-5.422314E+00
	-7.851745E+01	-5.423370E+00
	-7.851493E+01	-5.424994E+00
	-7.851376E+01	-5.426090E+00
	-7.851315E+01	-5.427715E+00
	-7.851221E+01	-5.431247E+00
	-7.851193E+01	-5.433521E+00
	-7.851173E+01	-5.436769E+00
	-7.851173E+01	-5.439611E+00
	-7.851128E+01	-5.443427E+00
	-7.851132E+01	-5.446797E+00
	-7.851217E+01	-5.449315E+00
	-7.851311E+01	-5.452238E+00
	-7.851396E+01	-5.453375E+00
	-7.851468E+01	-5.453981E+00
	-7.851518E+01	-5.454349E+00
	-7.851810E+01	-5.455730E+00
	-7.851916E+01	-5.456131E+00
	-7.852046E+01	-5.456623E+00
	-7.852269E+01	-5.457771E+00
	-7.852338E+01	-5.458108E+00
	-7.852496E+01	-5.459115E+00
	-7.852549E+01	-5.459449E+00
	-7.852793E+01	-5.460927E+00
	-7.853012E+01	-5.462470E+00
	-7.853166E+01	-5.463725E+00
	-7.853402E+01	-5.465068E+00
	-7.853593E+01	-5.465840E+00
	-7.853727E+01	-5.466489E+00
	-7.853844E+01	-5.467383E+00
	-7.853927E+01	-5.468008E+00
	-7.854053E+01	-5.469332E+00
	-7.854140E+01	-5.469907E+00
	-7.854214E+01	-5.470387E+00
	-7.854344E+01	-5.471767E+00
	-7.854486E+01	-5.473391E+00
	-7.854599E+01	-5.475340E+00
	-7.854760E+01	-5.477519E+00
	-7.854545E+01	-5.479903E+00
	-7.854308E+01	-5.481767E+00
	-7.854200E+01	-5.484182E+00
	-7.854093E+01	-5.485276E+00
	-7.853976E+01	-5.485947E+00
	-7.853754E+01	-5.486420E+00
	-7.853488E+01	-5.486793E+00
	-7.853354E+01	-5.486245E+00
	-7.853165E+01	-5.485176E+00
	-7.852951E+01	-5.485301E+00
	-7.852829E+01	-5.486420E+00
	-7.852612E+01	-5.489018E+00
	-7.852547E+01	-5.488346E+00
	-7.852293E+01	-5.487222E+00
	-7.851966E+01	-5.485724E+00
	-7.851896E+01	-5.485612E+00
	-7.851715E+01	-5.485231E+00
	-7.851573E+01	-5.485163E+00
	-7.851360E+01	-5.485283E+00
	-7.851322E+01	-5.485247E+00
	-7.851266E+01	-5.485194E+00
	-7.851259E+01	-5.485187E+00
	-7.851218E+01	-5.485227E+00
	-7.851086E+01	-5.485353E+00
	-7.851031E+01	-5.485406E+00
	-7.850686E+01	-5.486875E+00
	-7.850294E+01	-5.488168E+00
	-7.850073E+01	-5.488960E+00
	-7.849910E+01	-5.488876E+00
	-7.849764E+01	-5.487959E+00
	-7.849564E+01	-5.485332E+00
	-7.849510E+01	-5.484498E+00
	-7.849477E+01	-5.483956E+00
	-7.849390E+01	-5.483746E+00
	-7.849339E+01	-5.484540E+00
	-7.849331E+01	-5.486333E+00
	-7.849356E+01	-5.487626E+00
	-7.849338E+01	-5.489108E+00
	-7.849290E+01	-5.490835E+00
	-7.849252E+01	-5.491708E+00
	-7.849196E+01	-5.492953E+00
	-7.849185E+01	-5.493054E+00
	-7.849075E+01	-5.494069E+00
	-7.848897E+01	-5.495840E+00
	-7.848759E+01	-5.498551E+00
	-7.848620E+01	-5.502273E+00
	-7.848479E+01	-5.505680E+00
	-7.848357E+01	-5.508646E+00
	-7.848297E+01	-5.510101E+00
	-7.848195E+01	-5.511506E+00
	-7.848176E+01	-5.511674E+00
	-7.848067E+01	-5.512626E+00
	-7.848047E+01	-5.512988E+00
	-7.848046E+01	-5.513594E+00
	-7.848046E+01	-5.513683E+00
	-7.848031E+01	-5.514811E+00
	-7.847863E+01	-5.516482E+00
	-7.847779E+01	-5.517408E+00
	-7.847696E+01	-5.519415E+00
	-7.847706E+01	-5.521309E+00
	-7.847712E+01	-5.522485E+00
	-7.847706E+01	-5.523816E+00
	-7.847678E+01	-5.524883E+00
	-7.847673E+01	-5.525087E+00
	-7.847670E+01	-5.526652E+00
	-7.847657E+01	-5.528349E+00
	-7.847632E+01	-5.529386E+00
	-7.847562E+01	-5.530629E+00
	-7.847487E+01	-5.531449E+00
	-7.847364E+01	-5.532364E+00
	-7.847152E+01	-5.532966E+00
	-7.847036E+01	-5.534163E+00
	-7.846979E+01	-5.535301E+00
	-7.846947E+01	-5.535769E+00
	-7.846892E+01	-5.536480E+00
	-7.846830E+01	-5.537141E+00
	-7.846794E+01	-5.538005E+00
	-7.846751E+01	-5.538477E+00
	-7.846708E+01	-5.539286E+00
	-7.846599E+01	-5.541235E+00
	-7.846542E+01	-5.541684E+00
	-7.846478E+01	-5.541989E+00
	-7.846379E+01	-5.542044E+00
	-7.846350E+01	-5.542060E+00
	-7.846153E+01	-5.542923E+00
	-7.846080E+01	-5.543239E+00
	-7.845901E+01	-5.543951E+00
	-7.845511E+01	-5.545171E+00
	-7.845157E+01	-5.547005E+00
	-7.844881E+01	-5.548908E+00
	-7.844738E+01	-5.549180E+00
	-7.844564E+01	-5.549661E+00
	-7.844311E+01	-5.550516E+00
	-7.844049E+01	-5.551504E+00
	-7.843608E+01	-5.550729E+00
	-7.843568E+01	-5.553187E+00
	-7.843500E+01	-5.555511E+00
	-7.843375E+01	-5.556523E+00
	-7.843242E+01	-5.557053E+00
	-7.843047E+01	-5.557222E+00
	-7.842835E+01	-5.556571E+00
	-7.842709E+01	-5.555664E+00
	-7.842592E+01	-5.557198E+00
	-7.842584E+01	-5.559427E+00
	-7.842497E+01	-5.560940E+00
	-7.842210E+01	-5.561020E+00
	-7.841874E+01	-5.561101E+00
	-7.841218E+01	-5.560860E+00
	-7.840776E+01	-5.558670E+00
	-7.840176E+01	-5.556626E+00
	-7.840009E+01	-5.556343E+00
	-7.839873E+01	-5.556112E+00
	-7.839559E+01	-5.556569E+00
	-7.839133E+01	-5.558537E+00
	-7.839022E+01	-5.559180E+00
	-7.838578E+01	-5.561616E+00
	-7.838231E+01	-5.565230E+00
	-7.838059E+01	-5.567813E+00
	-7.837820E+01	-5.569771E+00
	-7.837149E+01	-5.573197E+00
	-7.836786E+01	-5.574476E+00
	-7.836566E+01	-5.575253E+00
	-7.836304E+01	-5.576680E+00
	-7.836298E+01	-5.576754E+00
	-7.836216E+01	-5.575850E+00
	-7.836025E+01	-5.574645E+00
	-7.835755E+01	-5.573633E+00
	-7.835561E+01	-5.573493E+00
	-7.835457E+01	-5.573417E+00
	-7.835209E+01	-5.572646E+00
	-7.835097E+01	-5.572064E+00
	-7.834941E+01	-5.571248E+00
	-7.834746E+01	-5.570646E+00
	-7.834125E+01	-5.570660E+00
	-7.833840E+01	-5.569851E+00
	-7.833757E+01	-5.569614E+00
	-7.833640E+01	-5.568984E+00
	-7.833507E+01	-5.567893E+00
	-7.833238E+01	-5.563552E+00
	-7.833163E+01	-5.562579E+00
	-7.833073E+01	-5.562280E+00
	-7.832557E+01	-5.559211E+00
	-7.832504E+01	-5.556816E+00
	-7.832459E+01	-5.555768E+00
	-7.832392E+01	-5.553823E+00
	-7.832347E+01	-5.551802E+00
	-7.832340E+01	-5.549931E+00
	-7.832392E+01	-5.549407E+00
	-7.832522E+01	-5.548941E+00
	-7.832760E+01	-5.547766E+00
	-7.832913E+01	-5.546164E+00
	-7.832910E+01	-5.544959E+00
	-7.832927E+01	-5.544564E+00
	-7.832957E+01	-5.543889E+00
	-7.833159E+01	-5.541808E+00
	-7.833395E+01	-5.540379E+00
	-7.833418E+01	-5.540237E+00
	-7.833502E+01	-5.539725E+00
	-7.833605E+01	-5.538868E+00
	-7.833637E+01	-5.537893E+00
	-7.833421E+01	-5.537204E+00
	-7.833099E+01	-5.537397E+00
	-7.832724E+01	-5.535906E+00
	-7.832460E+01	-5.533166E+00
	-7.832388E+01	-5.530714E+00
	-7.832200E+01	-5.527011E+00
	-7.832139E+01	-5.523750E+00
	-7.832001E+01	-5.522258E+00
	-7.831983E+01	-5.520352E+00
	-7.831847E+01	-5.518009E+00
	-7.831707E+01	-5.515460E+00
	-7.831617E+01	-5.513528E+00
	-7.831506E+01	-5.512212E+00
	-7.831363E+01	-5.510138E+00
	-7.831350E+01	-5.509947E+00
	-7.831312E+01	-5.508915E+00
	-7.831312E+01	-5.507630E+00
	-7.831230E+01	-5.506539E+00
	-7.831090E+01	-5.505183E+00
	-7.830921E+01	-5.504821E+00
	-7.830801E+01	-5.504052E+00
	-7.830662E+01	-5.503379E+00
	-7.830397E+01	-5.502514E+00
	-7.830316E+01	-5.500831E+00
	-7.830446E+01	-5.498380E+00
	-7.830649E+01	-5.494833E+00
	-7.830917E+01	-5.488436E+00
	-7.831014E+01	-5.486895E+00
	-7.831183E+01	-5.485993E+00
	-7.831458E+01	-5.483227E+00
	-7.831566E+01	-5.481401E+00
	-7.831681E+01	-5.479779E+00
	-7.831800E+01	-5.478653E+00
	-7.831982E+01	-5.473449E+00
	-7.832041E+01	-5.470690E+00
	-7.832061E+01	-5.468501E+00
	-7.832080E+01	-5.466310E+00
	-7.832080E+01	-5.465816E+00
	-7.832103E+01	-5.463058E+00
	-7.832045E+01	-5.459881E+00
	-7.831997E+01	-5.458457E+00
	-7.831769E+01	-5.451685E+00
	-7.831730E+01	-5.449951E+00
	-7.831704E+01	-5.447614E+00
	-7.831644E+01	-5.445250E+00
	-7.831617E+01	-5.443017E+00
	-7.831657E+01	-5.440889E+00
	-7.831696E+01	-5.439419E+00
	-7.831754E+01	-5.437974E+00
	-7.831888E+01	-5.435686E+00
	-7.831903E+01	-5.434455E+00
	-7.831943E+01	-5.432828E+00
	-7.831980E+01	-5.430713E+00
	-7.831984E+01	-5.429606E+00
	-7.832053E+01	-5.428308E+00
	-7.832176E+01	-5.426557E+00
	-7.832312E+01	-5.423409E+00
	-7.832325E+01	-5.423099E+00
	-7.832435E+01	-5.419439E+00
	-7.832450E+01	-5.416312E+00
	-7.832332E+01	-5.413604E+00
	-7.832275E+01	-5.412921E+00
	-7.832222E+01	-5.410411E+00
	-7.832280E+01	-5.408315E+00
	-7.832367E+01	-5.406108E+00
	-7.832584E+01	-5.404269E+00
	-7.832757E+01	-5.403619E+00
	-7.833073E+01	-5.401271E+00
	-7.833129E+01	-5.400237E+00
	-7.833156E+01	-5.398982E+00
	-7.833215E+01	-5.397259E+00
	-7.833243E+01	-5.396682E+00
	-7.833370E+01	-5.394023E+00
	-7.833440E+01	-5.392535E+00
	-7.833584E+01	-5.389008E+00
	-7.833757E+01	-5.387732E+00
	-7.833851E+01	-5.387320E+00
	-7.833892E+01	-5.386599E+00
	-7.834018E+01	-5.384753E+00
	-7.834203E+01	-5.383325E+00
	-7.834243E+01	-5.383053E+00
	-7.834379E+01	-5.381578E+00
	-7.834462E+01	-5.379196E+00
	-7.834571E+01	-5.372765E+00
	-7.834701E+01	-5.369514E+00
	-7.834961E+01	-5.365540E+00
	-7.835243E+01	-5.362289E+00
	-7.835450E+01	-5.359406E+00
	-7.835607E+01	-5.357921E+00
	-7.835662E+01	-5.357501E+00
	-7.835790E+01	-5.355655E+00
	-7.835846E+01	-5.353457E+00
	-7.836060E+01	-5.351732E+00
	-7.836145E+01	-5.351076E+00
	-7.836344E+01	-5.349525E+00
	-7.836711E+01	-5.347599E+00
	-7.836780E+01	-5.347236E+00
	-7.836829E+01	-5.346605E+00
	-7.836919E+01	-5.345541E+00
	-7.836948E+01	-5.343041E+00
	-7.836950E+01	-5.342886E+00
	-7.836976E+01	-5.341029E+00
	-7.837084E+01	-5.337040E+00
	-7.837115E+01	-5.335894E+00
	-7.837154E+01	-5.333819E+00
	-7.837188E+01	-5.333107E+00
	-7.837582E+01	-5.331358E+00
	-7.837944E+01	-5.329182E+00
	-7.838233E+01	-5.326121E+00
	-7.838503E+01	-5.322348E+00
	-7.838839E+01	-5.318742E+00
	-7.838961E+01	-5.317005E+00
	-7.838978E+01	-5.316119E+00
	-7.839005E+01	-5.313510E+00
	-7.839014E+01	-5.311145E+00
	-7.838966E+01	-5.310032E+00
	-7.838703E+01	-5.308513E+00
	-7.838571E+01	-5.307096E+00
	-7.838522E+01	-5.304291E+00
	-7.838571E+01	-5.302642E+00
	-7.838592E+01	-5.301022E+00
	-7.838642E+01	-5.299504E+00
	-7.838703E+01	-5.298390E+00
	-7.838769E+01	-5.293915E+00
	-7.838858E+01	-5.288203E+00
	-7.838929E+01	-5.284174E+00
	-7.839089E+01	-5.280105E+00
	-7.839119E+01	-5.276166E+00
	-7.839153E+01	-5.275457E+00
	-7.839162E+01	-5.275275E+00
	-7.839325E+01	-5.271907E+00
	-7.839386E+01	-5.269732E+00
	-7.839247E+01	-5.267131E+00
	-7.838980E+01	-5.260856E+00
	-7.838887E+01	-5.258047E+00
	-7.838863E+01	-5.256939E+00
	-7.838866E+01	-5.256481E+00
	-7.838870E+01	-5.256053E+00
	-7.838895E+01	-5.255463E+00
	-7.839189E+01	-5.253594E+00
	-7.839348E+01	-5.251936E+00
	-7.839520E+01	-5.249579E+00
	-7.840034E+01	-5.240815E+00
	-7.840283E+01	-5.235129E+00
	-7.840379E+01	-5.234267E+00
	-7.840603E+01	-5.232691E+00
	-7.841017E+01	-5.230254E+00
	-7.841401E+01	-5.229442E+00
	-7.841679E+01	-5.229614E+00
	-7.842075E+01	-5.229565E+00
	-7.842375E+01	-5.229435E+00
	-7.842672E+01	-5.228795E+00
	-7.842988E+01	-5.228526E+00
	-7.843069E+01	-5.228340E+00
	-7.843297E+01	-5.227816E+00
	-7.843539E+01	-5.226697E+00
	-7.843698E+01	-5.225022E+00
	-7.843701E+01	-5.224962E+00
	-7.843775E+01	-5.223589E+00
	-7.843778E+01	-5.221615E+00
	-7.843697E+01	-5.218610E+00
	-7.843685E+01	-5.216346E+00
	-7.843596E+01	-5.210757E+00
	-7.843471E+01	-5.205662E+00
	-7.843545E+01	-5.203401E+00
	-7.843705E+01	-5.201730E+00
	-7.843714E+01	-5.201692E+00
	-7.843934E+01	-5.200790E+00
	-7.844301E+01	-5.200344E+00
	-7.844581E+01	-5.198818E+00
	-7.844692E+01	-5.197390E+00
	-7.844751E+01	-5.195593E+00
	-7.844774E+01	-5.193575E+00
	-7.844809E+01	-5.190525E+00
	-7.845030E+01	-5.183041E+00
	-7.845124E+01	-5.180776E+00
	-7.845207E+01	-5.179378E+00
	-7.845282E+01	-5.178315E+00
	-7.845339E+01	-5.177723E+00
	-7.845440E+01	-5.176679E+00
	-7.845538E+01	-5.175840E+00
	-7.846005E+01	-5.173944E+00
	-7.846184E+01	-5.173780E+00
	-7.846249E+01	-5.173719E+00
	-7.846281E+01	-5.173796E+00
	-7.846710E+01	-5.174854E+00
	-7.846961E+01	-5.175620E+00
	-7.847147E+01	-5.176208E+00
	-7.847325E+01	-5.176771E+00
	-7.847631E+01	-5.177735E+00
	-7.847807E+01	-5.178538E+00
	-7.848003E+01	-5.179887E+00
	-7.848112E+01	-5.180786E+00
	-7.848177E+01	-5.181654E+00
	-7.848197E+01	-5.181968E+00
	-7.848206E+01	-5.182770E+00
	-7.848206E+01	-5.184127E+00
	-7.848209E+01	-5.185824E+00
	-7.848246E+01	-5.187490E+00
	-7.848311E+01	-5.188509E+00
	-7.848524E+01	-5.189743E+00
	-7.848625E+01	-5.189928E+00
	-7.848767E+01	-5.190329E+00
	-7.848909E+01	-5.190823E+00
	-7.848989E+01	-5.191471E+00
	-7.849057E+01	-5.192458E+00
	-7.849171E+01	-5.193791E+00
	-7.849283E+01	-5.195636E+00
	-7.849462E+01	-5.197972E+00
	-7.849600E+01	-5.199450E+00
	-7.849916E+01	-5.201122E+00
	-7.850072E+01	-5.201666E+00
	-7.850142E+01	-5.201957E+00
	-7.850204E+01	-5.202212E+00
	-7.850724E+01	-5.205457E+00
	-7.850801E+01	-5.205787E+00
	-7.851004E+01	-5.206465E+00
	-7.851222E+01	-5.207223E+00
	-7.851408E+01	-5.208502E+00
	-7.851590E+01	-5.210476E+00
	-7.851749E+01	-5.212170E+00
	-7.851916E+01	-5.213969E+00
	-7.852051E+01	-5.216732E+00
	-7.852092E+01	-5.218338E+00
	-7.852131E+01	-5.223188E+00
	-7.852141E+01	-5.225213E+00
	-7.852124E+01	-5.228046E+00
	-7.852089E+01	-5.230403E+00
	-7.852118E+01	-5.232372E+00
	-7.852176E+01	-5.235601E+00
	-7.852183E+01	-5.237571E+00
	-7.852179E+01	-5.239475E+00
	-7.852202E+01	-5.240315E+00
	-7.852299E+01	-5.241800E+00
	-7.852460E+01	-5.243059E+00
	-7.852564E+01	-5.243156E+00
	-7.852664E+01	-5.243544E+00
	-7.852744E+01	-5.243608E+00
	-7.852815E+01	-5.243673E+00
	-7.852914E+01	-5.243922E+00
	-7.853028E+01	-5.245125E+00
	-7.853118E+01	-5.246544E+00
	-7.853233E+01	-5.248212E+00
	-7.853374E+01	-5.249840E+00
	-7.853542E+01	-5.250743E+00
	-7.853726E+01	-5.253285E+00
	-7.853866E+01	-5.254976E+00
	-7.854000E+01	-5.256103E+00
	-7.854236E+01	-5.257911E+00
	-7.854378E+01	-5.258589E+00
	-7.854462E+01	-5.259106E+00
	-7.854627E+01	-5.258815E+00
	-7.854801E+01	-5.259009E+00
	-7.854998E+01	-5.258912E+00
	-7.855166E+01	-5.258331E+00
	-7.855318E+01	-5.257040E+00
	-7.855473E+01	-5.257169E+00
	-7.855700E+01	-5.255343E+00
	-7.855824E+01	-5.253240E+00
	-7.855847E+01	-5.252677E+00
	-7.855956E+01	-5.250078E+00
	-7.855956E+01	-5.250052E+00
	-7.855984E+01	-5.249043E+00
	-7.856012E+01	-5.248612E+00
	-7.856114E+01	-5.246915E+00
	-7.856218E+01	-5.243221E+00
	-7.856322E+01	-5.238889E+00
	-7.856349E+01	-5.237290E+00
	-7.856406E+01	-5.235202E+00
	-7.856712E+01	-5.231715E+00
	-7.856853E+01	-5.229577E+00
	-7.857041E+01	-5.227917E+00
	-7.857127E+01	-5.226082E+00
	-7.857409E+01	-5.221445E+00
	-7.857655E+01	-5.218045E+00
	-7.857666E+01	-5.214707E+00
	-7.858008E+01	-5.211696E+00
	-7.858427E+01	-5.216131E+00
	-7.858082E+01	-5.220319E+00
	-7.858484E+01	-5.225494E+00
	-7.858259E+01	-5.228066E+00
	-7.858245E+01	-5.230585E+00
	-7.858207E+01	-5.231541E+00
	-7.858464E+01	-5.235572E+00
	-7.858601E+01	-5.235189E+00
	-7.858634E+01	-5.235098E+00
	-7.858727E+01	-5.234969E+00
	-7.858853E+01	-5.235159E+00
	-7.859011E+01	-5.235159E+00
	-7.859162E+01	-5.235309E+00
	-7.859301E+01	-5.236610E+00
	-7.859384E+01	-5.237961E+00
	-7.859534E+01	-5.240968E+00
	-7.859607E+01	-5.243686E+00
	-7.859634E+01	-5.244508E+00
	-7.859637E+01	-5.244806E+00
	-7.859646E+01	-5.245742E+00
	-7.859643E+01	-5.246606E+00
	-7.859594E+01	-5.247316E+00
	-7.859535E+01	-5.248149E+00
	-7.859525E+01	-5.248733E+00
	-7.859566E+01	-5.249321E+00
	-7.859635E+01	-5.249510E+00
	-7.859702E+01	-5.249815E+00
	-7.859788E+01	-5.250339E+00
	-7.859918E+01	-5.251172E+00
	-7.860041E+01	-5.252283E+00
	-7.860233E+01	-5.254813E+00
	-7.860273E+01	-5.255526E+00
	-7.860320E+01	-5.256121E+00
	-7.860427E+01	-5.261327E+00
	-7.860504E+01	-5.263689E+00
	-7.860533E+01	-5.264337E+00
	-7.860585E+01	-5.264720E+00
	-7.860657E+01	-5.265108E+00
	-7.860681E+01	-5.265371E+00
	-7.860856E+01	-5.270607E+00
	-7.860974E+01	-5.273439E+00
	-7.861079E+01	-5.275975E+00
	-7.861343E+01	-5.282004E+00
	-7.861769E+01	-5.295070E+00
	-7.861834E+01	-5.296289E+00
	-7.861853E+01	-5.296640E+00
	-7.862035E+01	-5.300029E+00
	-7.862615E+01	-5.306373E+00
END
END
