polygon
1
	6.768056E+00	4.523583E+01
	6.768387E+00	4.523569E+01
	6.769006E+00	4.523537E+01
	6.771019E+00	4.523438E+01
	6.771334E+00	4.523419E+01
	6.771429E+00	4.523420E+01
	6.775332E+00	4.523523E+01
	6.777020E+00	4.523566E+01
	6.779932E+00	4.523643E+01
	6.781347E+00	4.523752E+01
	6.786780E+00	4.524177E+01
	6.786825E+00	4.524176E+01
	6.790227E+00	4.523995E+01
	6.790527E+00	4.523980E+01
	6.790948E+00	4.523962E+01
	6.792566E+00	4.523899E+01
	6.792607E+00	4.523900E+01
	6.793065E+00	4.523940E+01
	6.793692E+00	4.523982E+01
	6.793995E+00	4.524005E+01
	6.794120E+00	4.524020E+01
	6.794150E+00	4.524029E+01
	6.794143E+00	4.524046E+01
	6.794106E+00	4.524057E+01
	6.793973E+00	4.524079E+01
	6.793784E+00	4.524099E+01
	6.793771E+00	4.524103E+01
	6.793789E+00	4.524106E+01
	6.795540E+00	4.524200E+01
	6.795639E+00	4.524202E+01
	6.797651E+00	4.524218E+01
	6.797800E+00	4.524216E+01
	6.797866E+00	4.524218E+01
	6.797997E+00	4.524216E+01
	6.798179E+00	4.524216E+01
	6.798593E+00	4.524208E+01
	6.798790E+00	4.524206E+01
	6.798878E+00	4.524204E+01
	6.799057E+00	4.524193E+01
	6.799123E+00	4.524190E+01
	6.799209E+00	4.524189E+01
	6.799622E+00	4.524192E+01
	6.799694E+00	4.524193E+01
	6.799841E+00	4.524201E+01
	6.799976E+00	4.524200E+01
	6.800494E+00	4.524188E+01
	6.800871E+00	4.524180E+01
	6.801422E+00	4.524176E+01
	6.802485E+00	4.524161E+01
	6.802882E+00	4.524151E+01
	6.803521E+00	4.524131E+01
	6.803828E+00	4.524119E+01
	6.804420E+00	4.524092E+01
	6.804601E+00	4.524081E+01
	6.805002E+00	4.524051E+01
	6.805367E+00	4.524019E+01
	6.805643E+00	4.523989E+01
	6.805726E+00	4.523983E+01
	6.805848E+00	4.523977E+01
	6.806473E+00	4.523956E+01
	6.806703E+00	4.523944E+01
	6.806804E+00	4.523935E+01
	6.806972E+00	4.523914E+01
	6.807075E+00	4.523904E+01
	6.807162E+00	4.523899E+01
	6.807436E+00	4.523896E+01
	6.807624E+00	4.523888E+01
	6.807934E+00	4.523880E+01
	6.808033E+00	4.523876E+01
	6.808281E+00	4.523860E+01
	6.808488E+00	4.523851E+01
	6.808766E+00	4.523833E+01
	6.809109E+00	4.523816E+01
	6.809273E+00	4.523803E+01
	6.809440E+00	4.523785E+01
	6.809566E+00	4.523775E+01
	6.809826E+00	4.523766E+01
	6.809983E+00	4.523765E+01
	6.810110E+00	4.523761E+01
	6.810451E+00	4.523745E+01
	6.810608E+00	4.523734E+01
	6.811006E+00	4.523698E+01
	6.811182E+00	4.523683E+01
	6.811498E+00	4.523669E+01
	6.811571E+00	4.523664E+01
	6.811613E+00	4.523658E+01
	6.811655E+00	4.523642E+01
	6.811703E+00	4.523636E+01
	6.811809E+00	4.523631E+01
	6.811919E+00	4.523628E+01
	6.812159E+00	4.523630E+01
	6.812624E+00	4.523615E+01
	6.812957E+00	4.523608E+01
	6.813439E+00	4.523605E+01
	6.814131E+00	4.523596E+01
	6.814422E+00	4.523595E+01
	6.814520E+00	4.523597E+01
	6.814717E+00	4.523606E+01
	6.815209E+00	4.523606E+01
	6.815332E+00	4.523604E+01
	6.815495E+00	4.523607E+01
	6.815733E+00	4.523608E+01
	6.815951E+00	4.523614E+01
	6.816294E+00	4.523630E+01
	6.816489E+00	4.523634E+01
	6.816580E+00	4.523633E+01
	6.816844E+00	4.523623E+01
	6.816938E+00	4.523622E+01
	6.817323E+00	4.523626E+01
	6.817539E+00	4.523623E+01
	6.817695E+00	4.523614E+01
	6.817882E+00	4.523606E+01
	6.818482E+00	4.523597E+01
	6.818681E+00	4.523591E+01
	6.819124E+00	4.523583E+01
	6.819236E+00	4.523580E+01
	6.819761E+00	4.523550E+01
	6.822793E+00	4.523411E+01
	6.822834E+00	4.523411E+01
	6.824026E+00	4.523434E+01
	6.825025E+00	4.523450E+01
	6.825186E+00	4.523454E+01
	6.825483E+00	4.523469E+01
	6.825651E+00	4.523473E+01
	6.826177E+00	4.523475E+01
	6.827216E+00	4.523486E+01
	6.827543E+00	4.523481E+01
	6.827768E+00	4.523482E+01
	6.828387E+00	4.523494E+01
	6.828831E+00	4.523505E+01
	6.829043E+00	4.523513E+01
	6.829994E+00	4.523554E+01
	6.830602E+00	4.523564E+01
	6.831348E+00	4.523584E+01
	6.831590E+00	4.523584E+01
	6.831626E+00	4.523585E+01
	6.831773E+00	4.523600E+01
	6.831904E+00	4.523611E+01
	6.832121E+00	4.523595E+01
	6.832218E+00	4.523591E+01
	6.832381E+00	4.523593E+01
	6.832617E+00	4.523590E+01
	6.832931E+00	4.523581E+01
	6.833165E+00	4.523578E+01
	6.833263E+00	4.523574E+01
	6.833445E+00	4.523558E+01
	6.833567E+00	4.523554E+01
	6.833658E+00	4.523552E+01
	6.833728E+00	4.523553E+01
	6.833921E+00	4.523558E+01
	6.833995E+00	4.523558E+01
	6.834364E+00	4.523551E+01
	6.834649E+00	4.523552E+01
	6.834848E+00	4.523547E+01
	6.835090E+00	4.523543E+01
	6.835370E+00	4.523519E+01
	6.835627E+00	4.523508E+01
	6.835789E+00	4.523495E+01
	6.836223E+00	4.523486E+01
	6.836334E+00	4.523482E+01
	6.836431E+00	4.523470E+01
	6.836531E+00	4.523465E+01
	6.836830E+00	4.523455E+01
	6.837918E+00	4.523394E+01
	6.837979E+00	4.523389E+01
	6.840055E+00	4.523268E+01
	6.840101E+00	4.523263E+01
	6.840118E+00	4.523256E+01
	6.840127E+00	4.523149E+01
	6.839898E+00	4.522912E+01
	6.839848E+00	4.522903E+01
	6.839741E+00	4.522895E+01
	6.839435E+00	4.522880E+01
	6.839048E+00	4.522863E+01
	6.838821E+00	4.522850E+01
	6.838534E+00	4.522843E+01
	6.838409E+00	4.522838E+01
	6.837900E+00	4.522787E+01
	6.837734E+00	4.522756E+01
	6.837495E+00	4.522728E+01
	6.837422E+00	4.522716E+01
	6.837417E+00	4.522691E+01
	6.837342E+00	4.522683E+01
	6.837112E+00	4.522666E+01
	6.836046E+00	4.522569E+01
	6.835666E+00	4.522531E+01
	6.835603E+00	4.522509E+01
	6.835553E+00	4.522499E+01
	6.835144E+00	4.522472E+01
	6.834870E+00	4.522450E+01
	6.834769E+00	4.522439E+01
	6.834665E+00	4.522419E+01
	6.834511E+00	4.522406E+01
	6.834213E+00	4.522385E+01
	6.834186E+00	4.522380E+01
	6.834213E+00	4.522377E+01
	6.843847E+00	4.521751E+01
	6.843953E+00	4.521747E+01
	6.844614E+00	4.521741E+01
	6.845480E+00	4.521737E+01
	6.846232E+00	4.521737E+01
	6.846673E+00	4.521741E+01
	6.846770E+00	4.521743E+01
	6.846897E+00	4.521750E+01
	6.847018E+00	4.521752E+01
	6.847471E+00	4.521754E+01
	6.847602E+00	4.521754E+01
	6.847727E+00	4.521751E+01
	6.847966E+00	4.521743E+01
	6.855965E+00	4.521411E+01
	6.856010E+00	4.521410E+01
	6.856066E+00	4.521413E+01
	6.857522E+00	4.521593E+01
	6.858197E+00	4.521703E+01
	6.858526E+00	4.521764E+01
	6.859961E+00	4.522048E+01
	6.860015E+00	4.522056E+01
	6.860104E+00	4.522063E+01
	6.860468E+00	4.522087E+01
	6.861504E+00	4.522161E+01
	6.861958E+00	4.522196E+01
	6.862453E+00	4.522239E+01
	6.862472E+00	4.522244E+01
	6.862007E+00	4.522272E+01
	6.861951E+00	4.522274E+01
	6.861229E+00	4.522252E+01
	6.861199E+00	4.522252E+01
	6.861087E+00	4.522263E+01
	6.859799E+00	4.522297E+01
	6.859781E+00	4.522299E+01
	6.859740E+00	4.522474E+01
	6.859745E+00	4.522598E+01
	6.859802E+00	4.522609E+01
	6.860218E+00	4.522652E+01
	6.860261E+00	4.522655E+01
	6.862972E+00	4.522709E+01
	6.863987E+00	4.522727E+01
	6.865391E+00	4.522754E+01
	6.867688E+00	4.522794E+01
	6.867833E+00	4.522793E+01
	6.873778E+00	4.522646E+01
	6.873866E+00	4.522644E+01
	6.874006E+00	4.522639E+01
	6.877604E+00	4.522379E+01
	6.881603E+00	4.522084E+01
	6.884126E+00	4.522000E+01
	6.884307E+00	4.521997E+01
	6.884915E+00	4.521991E+01
	6.884968E+00	4.521989E+01
	6.885039E+00	4.521981E+01
	6.886504E+00	4.521731E+01
	6.886717E+00	4.521699E+01
	6.886759E+00	4.521688E+01
	6.886483E+00	4.521490E+01
	6.886493E+00	4.521481E+01
	6.888290E+00	4.521515E+01
	6.888335E+00	4.521515E+01
	6.889770E+00	4.521311E+01
	6.890870E+00	4.521149E+01
	6.891884E+00	4.521007E+01
	6.892576E+00	4.520905E+01
	6.892736E+00	4.520887E+01
	6.900624E+00	4.520196E+01
	6.902093E+00	4.520070E+01
	6.902223E+00	4.520068E+01
	6.904664E+00	4.520069E+01
	6.905393E+00	4.520078E+01
	6.906753E+00	4.520100E+01
	6.907050E+00	4.520103E+01
	6.908293E+00	4.520094E+01
	6.909095E+00	4.520098E+01
	6.910040E+00	4.520090E+01
	6.913121E+00	4.520087E+01
	6.913149E+00	4.520085E+01
	6.915489E+00	4.519705E+01
	6.916231E+00	4.519562E+01
	6.916267E+00	4.519547E+01
	6.916271E+00	4.519530E+01
	6.916236E+00	4.519514E+01
	6.916185E+00	4.519503E+01
	6.916118E+00	4.519496E+01
	6.915908E+00	4.519481E+01
	6.915851E+00	4.519474E+01
	6.915840E+00	4.519466E+01
	6.915884E+00	4.519458E+01
	6.916293E+00	4.519421E+01
	6.916488E+00	4.519400E+01
	6.916530E+00	4.519390E+01
	6.916506E+00	4.519377E+01
	6.916464E+00	4.519372E+01
	6.916351E+00	4.519365E+01
	6.916088E+00	4.519356E+01
	6.916040E+00	4.519353E+01
	6.916009E+00	4.519348E+01
	6.915940E+00	4.519319E+01
	6.915958E+00	4.519306E+01
	6.916011E+00	4.519301E+01
	6.916345E+00	4.519288E+01
	6.916412E+00	4.519282E+01
	6.916536E+00	4.519260E+01
	6.916703E+00	4.519205E+01
	6.916791E+00	4.519161E+01
	6.916285E+00	4.518797E+01
	6.916267E+00	4.518766E+01
	6.916335E+00	4.518761E+01
	6.916628E+00	4.518750E+01
	6.917732E+00	4.518701E+01
	6.924900E+00	4.518373E+01
	6.925457E+00	4.518349E+01
	6.925727E+00	4.518335E+01
	6.926113E+00	4.518305E+01
	6.929437E+00	4.518063E+01
	6.929634E+00	4.518046E+01
	6.931058E+00	4.517988E+01
	6.931172E+00	4.517987E+01
	6.932784E+00	4.518034E+01
	6.932884E+00	4.518036E+01
	6.933233E+00	4.518037E+01
	6.934675E+00	4.518032E+01
	6.936647E+00	4.518028E+01
	6.936782E+00	4.518030E+01
	6.940714E+00	4.518165E+01
	6.940810E+00	4.518167E+01
	6.942664E+00	4.518179E+01
	6.943685E+00	4.518187E+01
	6.943733E+00	4.518186E+01
	6.943751E+00	4.518184E+01
	6.943302E+00	4.517862E+01
	6.942958E+00	4.517615E+01
	6.943039E+00	4.517590E+01
	6.943771E+00	4.517478E+01
	6.946868E+00	4.517109E+01
	6.947159E+00	4.517075E+01
	6.947247E+00	4.517043E+01
	6.946853E+00	4.517028E+01
	6.945505E+00	4.517060E+01
	6.944076E+00	4.517059E+01
	6.943046E+00	4.517085E+01
	6.942002E+00	4.517088E+01
	6.941610E+00	4.517070E+01
	6.941232E+00	4.517043E+01
	6.939172E+00	4.517100E+01
	6.938323E+00	4.517106E+01
	6.937625E+00	4.517091E+01
	6.936505E+00	4.517091E+01
	6.934686E+00	4.517075E+01
	6.933687E+00	4.517061E+01
	6.933451E+00	4.517070E+01
	6.933416E+00	4.517109E+01
	6.932861E+00	4.517126E+01
	6.931885E+00	4.517120E+01
	6.930280E+00	4.517094E+01
	6.928187E+00	4.517055E+01
	6.927167E+00	4.517048E+01
	6.925661E+00	4.516982E+01
	6.924097E+00	4.516870E+01
	6.923027E+00	4.516881E+01
	6.923030E+00	4.516865E+01
	6.923301E+00	4.516836E+01
	6.922978E+00	4.516783E+01
	6.922841E+00	4.516768E+01
	6.922249E+00	4.516718E+01
	6.922188E+00	4.516716E+01
	6.921619E+00	4.516718E+01
	6.920991E+00	4.516743E+01
	6.920509E+00	4.516763E+01
	6.920021E+00	4.516784E+01
	6.919572E+00	4.516808E+01
	6.919205E+00	4.516823E+01
	6.917142E+00	4.516835E+01
	6.914478E+00	4.516872E+01
	6.914005E+00	4.516860E+01
	6.913082E+00	4.516782E+01
	6.911512E+00	4.516608E+01
	6.910898E+00	4.516557E+01
	6.910612E+00	4.516547E+01
	6.909895E+00	4.516552E+01
	6.908929E+00	4.516574E+01
	6.908010E+00	4.516589E+01
	6.907367E+00	4.516617E+01
	6.906463E+00	4.516700E+01
	6.905955E+00	4.516724E+01
	6.905249E+00	4.516731E+01
	6.904787E+00	4.516760E+01
	6.903443E+00	4.516784E+01
	6.903272E+00	4.516781E+01
	6.902877E+00	4.516768E+01
	6.902618E+00	4.516748E+01
	6.901921E+00	4.516733E+01
	6.901469E+00	4.516735E+01
	6.900702E+00	4.516739E+01
	6.899409E+00	4.516758E+01
	6.898659E+00	4.516773E+01
	6.897287E+00	4.516804E+01
	6.896196E+00	4.516849E+01
	6.895338E+00	4.516844E+01
	6.893951E+00	4.516851E+01
	6.893394E+00	4.516836E+01
	6.893103E+00	4.516814E+01
	6.893056E+00	4.516771E+01
	6.892650E+00	4.516731E+01
	6.891598E+00	4.516702E+01
	6.891432E+00	4.516662E+01
	6.891503E+00	4.516627E+01
	6.891935E+00	4.516543E+01
	6.891829E+00	4.516508E+01
	6.891581E+00	4.516490E+01
	6.891129E+00	4.516479E+01
	6.891045E+00	4.516467E+01
	6.891091E+00	4.516445E+01
	6.891389E+00	4.516430E+01
	6.892017E+00	4.516422E+01
	6.892261E+00	4.516394E+01
	6.892254E+00	4.516375E+01
	6.891759E+00	4.516345E+01
	6.891202E+00	4.516331E+01
	6.891248E+00	4.516313E+01
	6.891605E+00	4.516295E+01
	6.892254E+00	4.516287E+01
	6.892231E+00	4.516267E+01
	6.891346E+00	4.516174E+01
	6.890851E+00	4.516151E+01
	6.889797E+00	4.516105E+01
	6.889232E+00	4.516086E+01
	6.886740E+00	4.515949E+01
	6.885258E+00	4.515844E+01
	6.885058E+00	4.515816E+01
	6.884868E+00	4.515793E+01
	6.884654E+00	4.515765E+01
	6.884327E+00	4.515700E+01
	6.884150E+00	4.515674E+01
	6.884180E+00	4.515642E+01
	6.885103E+00	4.515513E+01
	6.885235E+00	4.515467E+01
	6.885817E+00	4.515420E+01
	6.886065E+00	4.515406E+01
	6.886364E+00	4.515372E+01
	6.886961E+00	4.515330E+01
	6.887315E+00	4.515309E+01
	6.887718E+00	4.515249E+01
	6.887844E+00	4.515235E+01
	6.888722E+00	4.515196E+01
	6.888983E+00	4.515157E+01
	6.889105E+00	4.515090E+01
	6.889909E+00	4.515010E+01
	6.890178E+00	4.514889E+01
	6.890681E+00	4.514800E+01
	6.890622E+00	4.514735E+01
	6.890176E+00	4.514648E+01
	6.890610E+00	4.514620E+01
	6.890950E+00	4.514610E+01
	6.891337E+00	4.514554E+01
	6.892020E+00	4.514530E+01
	6.892240E+00	4.514491E+01
	6.893600E+00	4.514425E+01
	6.895388E+00	4.514356E+01
	6.895921E+00	4.514342E+01
	6.896709E+00	4.514319E+01
	6.897601E+00	4.514301E+01
	6.897833E+00	4.514275E+01
	6.898142E+00	4.514198E+01
	6.898110E+00	4.514145E+01
	6.897598E+00	4.514068E+01
	6.897241E+00	4.514014E+01
	6.897008E+00	4.513983E+01
	6.896463E+00	4.513929E+01
	6.895803E+00	4.513890E+01
	6.895277E+00	4.513849E+01
	6.894588E+00	4.513776E+01
	6.894398E+00	4.513736E+01
	6.892373E+00	4.513684E+01
	6.890635E+00	4.513665E+01
	6.887472E+00	4.513656E+01
	6.886497E+00	4.513654E+01
	6.886022E+00	4.513644E+01
	6.885316E+00	4.513629E+01
	6.884410E+00	4.513579E+01
	6.882913E+00	4.513573E+01
	6.881321E+00	4.513542E+01
	6.880964E+00	4.513499E+01
	6.880573E+00	4.513488E+01
	6.879141E+00	4.513482E+01
	6.876536E+00	4.513507E+01
	6.875299E+00	4.513540E+01
	6.874196E+00	4.513584E+01
	6.873662E+00	4.513591E+01
	6.873051E+00	4.513568E+01
	6.873064E+00	4.513558E+01
	6.872862E+00	4.513554E+01
	6.871728E+00	4.513515E+01
	6.871088E+00	4.513481E+01
	6.870355E+00	4.513399E+01
	6.869993E+00	4.513344E+01
	6.869291E+00	4.513281E+01
	6.867971E+00	4.513212E+01
	6.866877E+00	4.513171E+01
	6.865790E+00	4.513145E+01
	6.863236E+00	4.513109E+01
	6.862413E+00	4.513075E+01
	6.861830E+00	4.513057E+01
	6.860344E+00	4.513033E+01
	6.859689E+00	4.513019E+01
	6.858028E+00	4.513019E+01
	6.857566E+00	4.512998E+01
	6.857191E+00	4.512924E+01
	6.856381E+00	4.512882E+01
	6.855418E+00	4.512848E+01
	6.854604E+00	4.512844E+01
	6.853827E+00	4.512847E+01
	6.853523E+00	4.512837E+01
	6.853131E+00	4.512821E+01
	6.852318E+00	4.512789E+01
	6.852199E+00	4.512785E+01
	6.851821E+00	4.512782E+01
	6.851562E+00	4.512779E+01
	6.851374E+00	4.512773E+01
	6.850867E+00	4.512752E+01
	6.850744E+00	4.512749E+01
	6.849850E+00	4.512730E+01
	6.848994E+00	4.512728E+01
	6.847797E+00	4.512733E+01
	6.847757E+00	4.512771E+01
	6.847349E+00	4.512812E+01
	6.846646E+00	4.512859E+01
	6.845927E+00	4.512933E+01
	6.845532E+00	4.513027E+01
	6.845337E+00	4.513126E+01
	6.845459E+00	4.513193E+01
	6.845994E+00	4.513243E+01
	6.846142E+00	4.513367E+01
	6.846923E+00	4.513450E+01
	6.847265E+00	4.513532E+01
	6.847242E+00	4.513554E+01
	6.846222E+00	4.513558E+01
	6.842295E+00	4.513550E+01
	6.840864E+00	4.513543E+01
	6.839670E+00	4.513551E+01
	6.838756E+00	4.513581E+01
	6.838237E+00	4.513581E+01
	6.838055E+00	4.513578E+01
	6.836037E+00	4.513523E+01
	6.835082E+00	4.513591E+01
	6.834075E+00	4.513621E+01
	6.833788E+00	4.513645E+01
	6.833496E+00	4.513715E+01
	6.832596E+00	4.513801E+01
	6.831565E+00	4.513872E+01
	6.830744E+00	4.513902E+01
	6.830425E+00	4.513928E+01
	6.830463E+00	4.513998E+01
	6.830416E+00	4.514023E+01
	6.830323E+00	4.514034E+01
	6.829619E+00	4.514065E+01
	6.828977E+00	4.514096E+01
	6.827377E+00	4.514179E+01
	6.826137E+00	4.514214E+01
	6.824532E+00	4.514231E+01
	6.823794E+00	4.514260E+01
	6.823131E+00	4.514306E+01
	6.822972E+00	4.514328E+01
	6.822778E+00	4.514358E+01
	6.822118E+00	4.514440E+01
	6.821761E+00	4.514476E+01
	6.821396E+00	4.514525E+01
	6.821071E+00	4.514526E+01
	6.820560E+00	4.514493E+01
	6.820044E+00	4.514458E+01
	6.819715E+00	4.514443E+01
	6.819413E+00	4.514428E+01
	6.818966E+00	4.514425E+01
	6.818881E+00	4.514432E+01
	6.818681E+00	4.514442E+01
	6.818051E+00	4.514473E+01
	6.817365E+00	4.514510E+01
	6.816493E+00	4.514567E+01
	6.815603E+00	4.514624E+01
	6.815350E+00	4.514656E+01
	6.814995E+00	4.514681E+01
	6.813762E+00	4.514778E+01
	6.813676E+00	4.514786E+01
	6.813578E+00	4.514802E+01
	6.812910E+00	4.514856E+01
	6.812631E+00	4.514876E+01
	6.812546E+00	4.514880E+01
	6.812386E+00	4.514883E+01
	6.812226E+00	4.514881E+01
	6.812140E+00	4.514876E+01
	6.811672E+00	4.514833E+01
	6.811557E+00	4.514827E+01
	6.811461E+00	4.514826E+01
	6.810776E+00	4.514834E+01
	6.810569E+00	4.514834E+01
	6.810470E+00	4.514832E+01
	6.810262E+00	4.514824E+01
	6.810213E+00	4.514824E+01
	6.809771E+00	4.514836E+01
	6.809719E+00	4.514842E+01
	6.809649E+00	4.514855E+01
	6.809474E+00	4.514875E+01
	6.809370E+00	4.514879E+01
	6.808369E+00	4.514892E+01
	6.808224E+00	4.514896E+01
	6.808144E+00	4.514901E+01
	6.807915E+00	4.514925E+01
	6.807803E+00	4.514932E+01
	6.807624E+00	4.514939E+01
	6.807390E+00	4.514943E+01
	6.806455E+00	4.514939E+01
	6.805865E+00	4.514935E+01
	6.805600E+00	4.514938E+01
	6.805132E+00	4.514950E+01
	6.804175E+00	4.514985E+01
	6.803625E+00	4.515002E+01
	6.803206E+00	4.515013E+01
	6.803114E+00	4.515014E+01
	6.802876E+00	4.515013E+01
	6.802400E+00	4.515004E+01
	6.802211E+00	4.515003E+01
	6.802025E+00	4.515005E+01
	6.801874E+00	4.515010E+01
	6.801365E+00	4.515030E+01
	6.800615E+00	4.515056E+01
	6.800348E+00	4.515069E+01
	6.800118E+00	4.515082E+01
	6.799184E+00	4.515148E+01
	6.798438E+00	4.515188E+01
	6.798034E+00	4.515220E+01
	6.797037E+00	4.515295E+01
	6.796950E+00	4.515310E+01
	6.797112E+00	4.515322E+01
	6.797177E+00	4.515326E+01
	6.797372E+00	4.515331E+01
	6.797521E+00	4.515338E+01
	6.799620E+00	4.515399E+01
	6.800512E+00	4.515430E+01
	6.800594E+00	4.515439E+01
	6.800847E+00	4.515499E+01
	6.800998E+00	4.515542E+01
	6.800901E+00	4.515677E+01
	6.800695E+00	4.515792E+01
	6.800642E+00	4.515801E+01
	6.800400E+00	4.515828E+01
	6.800295E+00	4.515845E+01
	6.800264E+00	4.515853E+01
	6.800263E+00	4.515861E+01
	6.800393E+00	4.515936E+01
	6.800400E+00	4.515965E+01
	6.800371E+00	4.515989E+01
	6.800312E+00	4.516005E+01
	6.800218E+00	4.516015E+01
	6.800093E+00	4.516024E+01
	6.799735E+00	4.516042E+01
	6.799566E+00	4.516057E+01
	6.799491E+00	4.516066E+01
	6.799466E+00	4.516074E+01
	6.799577E+00	4.516189E+01
	6.799867E+00	4.516223E+01
	6.800320E+00	4.516303E+01
	6.800388E+00	4.516310E+01
	6.800903E+00	4.516346E+01
	6.800925E+00	4.516350E+01
	6.800806E+00	4.516372E+01
	6.800796E+00	4.516382E+01
	6.800833E+00	4.516386E+01
	6.800942E+00	4.516393E+01
	6.800963E+00	4.516397E+01
	6.800994E+00	4.516419E+01
	6.801603E+00	4.516505E+01
	6.802049E+00	4.516546E+01
	6.802344E+00	4.516586E+01
	6.802424E+00	4.516604E+01
	6.802422E+00	4.516614E+01
	6.802392E+00	4.516620E+01
	6.802209E+00	4.516645E+01
	6.801711E+00	4.516679E+01
	6.801628E+00	4.516686E+01
	6.801498E+00	4.516708E+01
	6.801394E+00	4.516752E+01
	6.801164E+00	4.516796E+01
	6.801153E+00	4.516802E+01
	6.801169E+00	4.516806E+01
	6.801212E+00	4.516810E+01
	6.801437E+00	4.516820E+01
	6.801468E+00	4.516824E+01
	6.801448E+00	4.516829E+01
	6.801266E+00	4.516841E+01
	6.800985E+00	4.516854E+01
	6.800840E+00	4.516864E+01
	6.800757E+00	4.516876E+01
	6.800701E+00	4.516912E+01
	6.800620E+00	4.516944E+01
	6.800573E+00	4.516955E+01
	6.800502E+00	4.516963E+01
	6.799592E+00	4.516999E+01
	6.799455E+00	4.517008E+01
	6.799386E+00	4.517015E+01
	6.799174E+00	4.517060E+01
	6.799104E+00	4.517079E+01
	6.799065E+00	4.517083E+01
	6.798859E+00	4.517097E+01
	6.798417E+00	4.517120E+01
	6.798338E+00	4.517129E+01
	6.798293E+00	4.517181E+01
	6.798304E+00	4.517194E+01
	6.798391E+00	4.517221E+01
	6.798388E+00	4.517227E+01
	6.795164E+00	4.517364E+01
	6.794790E+00	4.517378E+01
	6.794520E+00	4.517385E+01
	6.791843E+00	4.517430E+01
	6.789415E+00	4.517469E+01
	6.789330E+00	4.517472E+01
	6.789247E+00	4.517479E+01
	6.788202E+00	4.517598E+01
	6.787961E+00	4.517621E+01
	6.787689E+00	4.517642E+01
	6.787652E+00	4.517649E+01
	6.787648E+00	4.517748E+01
	6.787623E+00	4.517755E+01
	6.787465E+00	4.517783E+01
	6.786267E+00	4.517933E+01
	6.785497E+00	4.518055E+01
	6.785250E+00	4.518091E+01
	6.784313E+00	4.518236E+01
	6.783690E+00	4.518329E+01
	6.783309E+00	4.518420E+01
	6.783129E+00	4.518455E+01
	6.782651E+00	4.518522E+01
	6.781640E+00	4.518658E+01
	6.781496E+00	4.518674E+01
	6.781451E+00	4.518677E+01
	6.781331E+00	4.518679E+01
	6.779934E+00	4.518693E+01
	6.778737E+00	4.518688E+01
	6.778569E+00	4.518690E+01
	6.777178E+00	4.518731E+01
	6.777072E+00	4.518739E+01
	6.775915E+00	4.518843E+01
	6.770645E+00	4.519765E+01
	6.769700E+00	4.519943E+01
	6.768929E+00	4.520086E+01
	6.768778E+00	4.520114E+01
	6.768683E+00	4.520131E+01
	6.768622E+00	4.520143E+01
	6.768604E+00	4.520147E+01
	6.768544E+00	4.520158E+01
	6.768088E+00	4.520244E+01
	6.767631E+00	4.520329E+01
	6.767610E+00	4.520334E+01
	6.767582E+00	4.520337E+01
	6.767569E+00	4.520340E+01
	6.767319E+00	4.520388E+01
	6.767212E+00	4.520410E+01
	6.766825E+00	4.520493E+01
	6.766171E+00	4.520640E+01
	6.765522E+00	4.520747E+01
	6.764491E+00	4.520894E+01
	6.764168E+00	4.520968E+01
	6.764077E+00	4.520988E+01
	6.761400E+00	4.521533E+01
	6.760743E+00	4.521600E+01
	6.760700E+00	4.521598E+01
	6.760554E+00	4.521620E+01
	6.760448E+00	4.521634E+01
	6.760234E+00	4.521656E+01
	6.760058E+00	4.521678E+01
	6.760019E+00	4.521682E+01
	6.759930E+00	4.521686E+01
	6.759598E+00	4.521700E+01
	6.759544E+00	4.521704E+01
	6.759415E+00	4.521713E+01
	6.759345E+00	4.521720E+01
	6.759233E+00	4.521734E+01
	6.759089E+00	4.521753E+01
	6.759014E+00	4.521764E+01
	6.758805E+00	4.521781E+01
	6.758710E+00	4.521789E+01
	6.758585E+00	4.521805E+01
	6.758454E+00	4.521818E+01
	6.758426E+00	4.521822E+01
	6.758398E+00	4.521833E+01
	6.758400E+00	4.521835E+01
	6.758425E+00	4.521845E+01
	6.758493E+00	4.521845E+01
	6.758466E+00	4.521934E+01
	6.758480E+00	4.521938E+01
	6.758481E+00	4.521936E+01
	6.758489E+00	4.521935E+01
	6.758515E+00	4.521933E+01
	6.758580E+00	4.521930E+01
	6.758637E+00	4.521929E+01
	6.758756E+00	4.521928E+01
	6.759122E+00	4.521918E+01
	6.760760E+00	4.521909E+01
	6.761259E+00	4.522037E+01
	6.761738E+00	4.522125E+01
	6.761847E+00	4.522168E+01
	6.761971E+00	4.522214E+01
	6.761975E+00	4.522227E+01
	6.761964E+00	4.522234E+01
	6.761950E+00	4.522240E+01
	6.761896E+00	4.522246E+01
	6.761823E+00	4.522255E+01
	6.761588E+00	4.522284E+01
	6.761490E+00	4.522300E+01
	6.761446E+00	4.522307E+01
	6.761430E+00	4.522312E+01
	6.761417E+00	4.522317E+01
	6.761414E+00	4.522320E+01
	6.761421E+00	4.522324E+01
	6.761445E+00	4.522328E+01
	6.761546E+00	4.522336E+01
	6.761589E+00	4.522339E+01
	6.761765E+00	4.522353E+01
	6.763083E+00	4.522457E+01
	6.762961E+00	4.522473E+01
	6.762841E+00	4.522488E+01
	6.762791E+00	4.522493E+01
	6.762698E+00	4.522498E+01
	6.762646E+00	4.522501E+01
	6.762491E+00	4.522512E+01
	6.762419E+00	4.522515E+01
	6.762362E+00	4.522517E+01
	6.762230E+00	4.522520E+01
	6.762176E+00	4.522521E+01
	6.762125E+00	4.522523E+01
	6.762044E+00	4.522528E+01
	6.761830E+00	4.522538E+01
	6.761612E+00	4.522554E+01
	6.761546E+00	4.522559E+01
	6.761503E+00	4.522562E+01
	6.761449E+00	4.522565E+01
	6.761294E+00	4.522571E+01
	6.761169E+00	4.522577E+01
	6.760789E+00	4.522597E+01
	6.760644E+00	4.522604E+01
	6.760536E+00	4.522608E+01
	6.760425E+00	4.522613E+01
	6.760175E+00	4.522624E+01
	6.759886E+00	4.522636E+01
	6.759652E+00	4.522649E+01
	6.759685E+00	4.522648E+01
	6.761741E+00	4.522760E+01
	6.763020E+00	4.522858E+01
	6.763096E+00	4.522862E+01
	6.763195E+00	4.522866E+01
	6.763409E+00	4.522874E+01
	6.763733E+00	4.522894E+01
	6.763835E+00	4.522900E+01
	6.763868E+00	4.522902E+01
	6.763993E+00	4.522913E+01
	6.764025E+00	4.522929E+01
	6.764040E+00	4.522934E+01
	6.764060E+00	4.522939E+01
	6.764076E+00	4.522941E+01
	6.764104E+00	4.522943E+01
	6.764262E+00	4.522951E+01
	6.764458E+00	4.522960E+01
	6.764493E+00	4.522964E+01
	6.764534E+00	4.522967E+01
	6.764590E+00	4.522971E+01
	6.764637E+00	4.522973E+01
	6.764705E+00	4.522974E+01
	6.764775E+00	4.522974E+01
	6.765467E+00	4.522981E+01
	6.765454E+00	4.522987E+01
	6.765453E+00	4.522995E+01
	6.765461E+00	4.523005E+01
	6.765491E+00	4.523016E+01
	6.765314E+00	4.523022E+01
	6.765154E+00	4.523036E+01
	6.765129E+00	4.523040E+01
	6.765149E+00	4.523042E+01
	6.765281E+00	4.523069E+01
	6.765326E+00	4.523081E+01
	6.765400E+00	4.523098E+01
	6.765473E+00	4.523096E+01
	6.765587E+00	4.523096E+01
	6.765725E+00	4.523099E+01
	6.766004E+00	4.523108E+01
	6.765729E+00	4.523137E+01
	6.765716E+00	4.523171E+01
	6.765717E+00	4.523174E+01
	6.765732E+00	4.523179E+01
	6.765875E+00	4.523204E+01
	6.765925E+00	4.523218E+01
	6.766764E+00	4.523361E+01
	6.766781E+00	4.523375E+01
	6.766868E+00	4.523398E+01
	6.766892E+00	4.523406E+01
	6.766919E+00	4.523423E+01
	6.767041E+00	4.523444E+01
	6.767085E+00	4.523454E+01
	6.767091E+00	4.523456E+01
	6.767090E+00	4.523458E+01
	6.767065E+00	4.523464E+01
	6.767055E+00	4.523471E+01
	6.767101E+00	4.523480E+01
	6.767204E+00	4.523487E+01
	6.767334E+00	4.523492E+01
	6.767473E+00	4.523500E+01
	6.767676E+00	4.523515E+01
	6.767743E+00	4.523522E+01
	6.767797E+00	4.523527E+01
	6.767922E+00	4.523540E+01
	6.767999E+00	4.523553E+01
	6.768019E+00	4.523559E+01
	6.768042E+00	4.523570E+01
	6.768056E+00	4.523583E+01
END
END
