polygon
1
	-5.034845E+01	-3.005308E+01
	-5.034820E+01	-3.005369E+01
	-5.034602E+01	-3.005677E+01
	-5.034457E+01	-3.005964E+01
	-5.034437E+01	-3.005986E+01
	-5.033400E+01	-3.006500E+01
	-5.033275E+01	-3.006550E+01
	-5.033102E+01	-3.006549E+01
	-5.032812E+01	-3.006586E+01
	-5.032444E+01	-3.006570E+01
	-5.031540E+01	-3.006715E+01
	-5.030634E+01	-3.006759E+01
	-5.030252E+01	-3.006037E+01
	-5.029176E+01	-3.005521E+01
	-5.028914E+01	-3.005517E+01
	-5.028489E+01	-3.005117E+01
	-5.028234E+01	-3.004941E+01
	-5.027961E+01	-3.004669E+01
	-5.027624E+01	-3.004536E+01
	-5.027342E+01	-3.004378E+01
	-5.026715E+01	-3.004974E+01
	-5.026201E+01	-3.005604E+01
	-5.025985E+01	-3.006125E+01
	-5.025701E+01	-3.006499E+01
	-5.025139E+01	-3.006183E+01
	-5.024294E+01	-3.005809E+01
	-5.022600E+01	-3.005300E+01
	-5.022200E+01	-3.005500E+01
	-5.022200E+01	-3.006000E+01
	-5.021800E+01	-3.005600E+01
	-5.022000E+01	-3.004500E+01
	-5.020800E+01	-3.003900E+01
	-5.019900E+01	-3.004000E+01
	-5.019500E+01	-3.004400E+01
	-5.019700E+01	-3.004700E+01
	-5.019392E+01	-3.004928E+01
	-5.019300E+01	-3.005100E+01
	-5.018959E+01	-3.005098E+01
	-5.018767E+01	-3.006143E+01
	-5.018934E+01	-3.006233E+01
	-5.019486E+01	-3.007171E+01
	-5.019716E+01	-3.007178E+01
	-5.019683E+01	-3.007319E+01
	-5.019983E+01	-3.007594E+01
	-5.020517E+01	-3.007157E+01
	-5.020792E+01	-3.007180E+01
	-5.021000E+01	-3.008300E+01
	-5.017700E+01	-3.009400E+01
	-5.017235E+01	-3.009575E+01
	-5.016958E+01	-3.009679E+01
	-5.016290E+01	-3.008093E+01
	-5.015671E+01	-3.006426E+01
	-5.013328E+01	-3.001247E+01
	-5.011911E+01	-2.997865E+01
	-5.011902E+01	-2.997790E+01
	-5.011915E+01	-2.997743E+01
	-5.011937E+01	-2.997699E+01
	-5.011961E+01	-2.997681E+01
	-5.011910E+01	-2.997615E+01
	-5.012176E+01	-2.997618E+01
	-5.012396E+01	-2.997825E+01
	-5.012523E+01	-2.997908E+01
	-5.012715E+01	-2.998003E+01
	-5.013003E+01	-2.998203E+01
	-5.013189E+01	-2.998278E+01
	-5.013340E+01	-2.998244E+01
	-5.013748E+01	-2.998058E+01
	-5.014469E+01	-2.998211E+01
	-5.015276E+01	-2.998876E+01
	-5.015928E+01	-2.999218E+01
	-5.017353E+01	-2.998728E+01
	-5.017794E+01	-2.998967E+01
	-5.017835E+01	-2.999007E+01
	-5.017961E+01	-2.999104E+01
	-5.018035E+01	-2.999151E+01
	-5.018091E+01	-2.999183E+01
	-5.018092E+01	-2.999256E+01
	-5.018108E+01	-2.999280E+01
	-5.018174E+01	-2.999277E+01
	-5.018225E+01	-2.999293E+01
	-5.018251E+01	-2.999315E+01
	-5.018252E+01	-2.999343E+01
	-5.018266E+01	-2.999383E+01
	-5.018287E+01	-2.999400E+01
	-5.018315E+01	-2.999392E+01
	-5.018359E+01	-2.999393E+01
	-5.018387E+01	-2.999409E+01
	-5.018396E+01	-2.999436E+01
	-5.018403E+01	-2.999498E+01
	-5.018431E+01	-2.999530E+01
	-5.018581E+01	-2.999439E+01
	-5.018781E+01	-2.999319E+01
	-5.018914E+01	-2.999220E+01
	-5.019051E+01	-2.999103E+01
	-5.019303E+01	-2.998877E+01
	-5.019440E+01	-2.998764E+01
	-5.020018E+01	-2.998267E+01
	-5.020108E+01	-2.998194E+01
	-5.020180E+01	-2.998152E+01
	-5.020240E+01	-2.998124E+01
	-5.020323E+01	-2.998100E+01
	-5.020405E+01	-2.998084E+01
	-5.021721E+01	-2.997836E+01
	-5.021868E+01	-2.997807E+01
	-5.021933E+01	-2.997789E+01
	-5.021979E+01	-2.997770E+01
	-5.022050E+01	-2.997736E+01
	-5.022108E+01	-2.997708E+01
	-5.022158E+01	-2.997671E+01
	-5.022195E+01	-2.997641E+01
	-5.022229E+01	-2.997608E+01
	-5.022799E+01	-2.996979E+01
	-5.022858E+01	-2.996912E+01
	-5.022879E+01	-2.996886E+01
	-5.022902E+01	-2.996850E+01
	-5.022924E+01	-2.996810E+01
	-5.022934E+01	-2.996788E+01
	-5.022942E+01	-2.996792E+01
	-5.022978E+01	-2.996806E+01
	-5.022998E+01	-2.996821E+01
	-5.023057E+01	-2.997058E+01
	-5.023057E+01	-2.997073E+01
	-5.023015E+01	-2.997164E+01
	-5.023017E+01	-2.997173E+01
	-5.023023E+01	-2.997180E+01
	-5.023097E+01	-2.997208E+01
	-5.023153E+01	-2.997226E+01
	-5.023243E+01	-2.997237E+01
	-5.023261E+01	-2.997245E+01
	-5.023276E+01	-2.997259E+01
	-5.023297E+01	-2.997274E+01
	-5.023395E+01	-2.997335E+01
	-5.023431E+01	-2.997366E+01
	-5.023483E+01	-2.997421E+01
	-5.023576E+01	-2.997548E+01
	-5.023591E+01	-2.997569E+01
	-5.023610E+01	-2.997625E+01
	-5.023634E+01	-2.997659E+01
	-5.023688E+01	-2.997710E+01
	-5.023806E+01	-2.997808E+01
	-5.023975E+01	-2.997988E+01
	-5.024221E+01	-2.998270E+01
	-5.024392E+01	-2.998434E+01
	-5.024593E+01	-2.998556E+01
	-5.025048E+01	-2.998805E+01
	-5.025236E+01	-2.999020E+01
	-5.025375E+01	-2.999135E+01
	-5.025516E+01	-2.999262E+01
	-5.026783E+01	-3.000052E+01
	-5.027233E+01	-3.000329E+01
	-5.028087E+01	-3.000711E+01
	-5.028105E+01	-3.000719E+01
	-5.028803E+01	-3.001190E+01
	-5.029332E+01	-3.001455E+01
	-5.030292E+01	-3.001938E+01
	-5.030435E+01	-3.002024E+01
	-5.030666E+01	-3.002102E+01
	-5.030691E+01	-3.002115E+01
	-5.030709E+01	-3.002139E+01
	-5.030766E+01	-3.002252E+01
	-5.030817E+01	-3.002326E+01
	-5.030842E+01	-3.002353E+01
	-5.030859E+01	-3.002380E+01
	-5.030870E+01	-3.002409E+01
	-5.030880E+01	-3.002454E+01
	-5.030895E+01	-3.002475E+01
	-5.031449E+01	-3.002914E+01
	-5.031728E+01	-3.003218E+01
	-5.032038E+01	-3.003357E+01
	-5.032561E+01	-3.003596E+01
	-5.032593E+01	-3.003597E+01
	-5.034013E+01	-3.003417E+01
	-5.034423E+01	-3.003583E+01
	-5.034452E+01	-3.003605E+01
	-5.034642E+01	-3.003865E+01
	-5.034650E+01	-3.003890E+01
	-5.034655E+01	-3.003922E+01
	-5.034648E+01	-3.004003E+01
	-5.034665E+01	-3.004072E+01
	-5.034845E+01	-3.005308E+01
END
END
