polygon
1
	9.039356E+00	3.951932E+01
	9.039483E+00	3.951887E+01
	9.039960E+00	3.951798E+01
	9.040180E+00	3.951747E+01
	9.040389E+00	3.951663E+01
	9.040563E+00	3.951531E+01
	9.040656E+00	3.951492E+01
	9.040958E+00	3.951435E+01
	9.041156E+00	3.951391E+01
	9.041248E+00	3.951345E+01
	9.041237E+00	3.951289E+01
	9.041329E+00	3.951220E+01
	9.041736E+00	3.951158E+01
	9.042189E+00	3.951098E+01
	9.042596E+00	3.951052E+01
	9.042863E+00	3.951013E+01
	9.042933E+00	3.950987E+01
	9.043003E+00	3.950963E+01
	9.043014E+00	3.950928E+01
	9.042735E+00	3.950898E+01
	9.042886E+00	3.950875E+01
	9.043316E+00	3.950825E+01
	9.043572E+00	3.950798E+01
	9.043688E+00	3.950745E+01
	9.043571E+00	3.950650E+01
	9.043466E+00	3.950626E+01
	9.043535E+00	3.950596E+01
	9.043710E+00	3.950548E+01
	9.043779E+00	3.950508E+01
	9.043732E+00	3.950463E+01
	9.043616E+00	3.950430E+01
	9.043639E+00	3.950396E+01
	9.043894E+00	3.950335E+01
	9.044138E+00	3.950251E+01
	9.044405E+00	3.950148E+01
	9.044463E+00	3.950111E+01
	9.044498E+00	3.950075E+01
	9.044893E+00	3.950011E+01
	9.045078E+00	3.949953E+01
	9.045148E+00	3.949901E+01
	9.045148E+00	3.949868E+01
	9.045170E+00	3.949830E+01
	9.045007E+00	3.949731E+01
	9.044657E+00	3.949613E+01
	9.044634E+00	3.949562E+01
	9.044936E+00	3.949525E+01
	9.045261E+00	3.949476E+01
	9.046470E+00	3.949345E+01
	9.047458E+00	3.949235E+01
	9.047795E+00	3.949189E+01
	9.047876E+00	3.949147E+01
	9.047897E+00	3.949140E+01
	9.047980E+00	3.949111E+01
	9.048166E+00	3.949071E+01
	9.049386E+00	3.948922E+01
	9.050246E+00	3.948828E+01
	9.050792E+00	3.948797E+01
	9.051606E+00	3.948743E+01
	9.052222E+00	3.948711E+01
	9.053544E+00	3.948618E+01
	9.056778E+00	3.948390E+01
	9.058567E+00	3.948265E+01
	9.063239E+00	3.947964E+01
	9.063774E+00	3.947968E+01
	9.064343E+00	3.947938E+01
	9.064797E+00	3.947931E+01
	9.065111E+00	3.947942E+01
	9.065587E+00	3.947916E+01
	9.066052E+00	3.947894E+01
	9.067865E+00	3.947823E+01
	9.070771E+00	3.947706E+01
	9.071642E+00	3.947691E+01
	9.072079E+00	3.947693E+01
	9.072573E+00	3.947687E+01
	9.073212E+00	3.947656E+01
	9.077052E+00	3.947404E+01
	9.077371E+00	3.947383E+01
	9.077580E+00	3.947360E+01
	9.078126E+00	3.947349E+01
	9.078800E+00	3.947324E+01
	9.079370E+00	3.947290E+01
	9.079765E+00	3.947250E+01
	9.080067E+00	3.947223E+01
	9.080288E+00	3.947244E+01
	9.080463E+00	3.947284E+01
	9.080661E+00	3.947315E+01
	9.080859E+00	3.947355E+01
	9.081150E+00	3.947390E+01
	9.081510E+00	3.947411E+01
	9.082313E+00	3.947470E+01
	9.082174E+00	3.947500E+01
	9.082395E+00	3.947518E+01
	9.082779E+00	3.947555E+01
	9.083152E+00	3.947594E+01
	9.083722E+00	3.947642E+01
	9.084840E+00	3.947750E+01
	9.085596E+00	3.947836E+01
	9.086039E+00	3.947885E+01
	9.086609E+00	3.947926E+01
	9.086694E+00	3.947931E+01
	9.087238E+00	3.947967E+01
	9.087738E+00	3.947992E+01
	9.088099E+00	3.948020E+01
	9.088250E+00	3.948056E+01
	9.088425E+00	3.948087E+01
	9.088623E+00	3.948121E+01
	9.088810E+00	3.948160E+01
	9.088985E+00	3.948203E+01
	9.089206E+00	3.948250E+01
	9.089370E+00	3.948297E+01
	9.089696E+00	3.948338E+01
	9.089940E+00	3.948368E+01
	9.090162E+00	3.948425E+01
	9.090349E+00	3.948486E+01
	9.090326E+00	3.948533E+01
	9.090152E+00	3.948555E+01
	9.090257E+00	3.948593E+01
	9.090549E+00	3.948656E+01
	9.091049E+00	3.948712E+01
	9.091085E+00	3.948755E+01
	9.091167E+00	3.948795E+01
	9.091377E+00	3.948832E+01
	9.091621E+00	3.948882E+01
	9.091843E+00	3.948928E+01
	9.091949E+00	3.949008E+01
	9.092008E+00	3.949095E+01
	9.091892E+00	3.949146E+01
	9.091732E+00	3.949349E+01
	9.091756E+00	3.949391E+01
	9.091885E+00	3.949505E+01
	9.091921E+00	3.949554E+01
	9.092084E+00	3.949581E+01
	9.092457E+00	3.949613E+01
	9.092737E+00	3.949665E+01
	9.092970E+00	3.949737E+01
	9.093345E+00	3.949920E+01
	9.090695E+00	3.949992E+01
	9.087989E+00	3.950065E+01
	9.085950E+00	3.950123E+01
	9.082648E+00	3.950230E+01
	9.082393E+00	3.950299E+01
	9.081941E+00	3.950395E+01
	9.080815E+00	3.950602E+01
	9.079643E+00	3.950848E+01
	9.079364E+00	3.950896E+01
	9.078888E+00	3.950916E+01
	9.078434E+00	3.950928E+01
	9.078260E+00	3.950949E+01
	9.078016E+00	3.950967E+01
	9.077423E+00	3.950969E+01
	9.077052E+00	3.950976E+01
	9.076736E+00	3.950984E+01
	9.076318E+00	3.951013E+01
	9.075760E+00	3.951062E+01
	9.075423E+00	3.951082E+01
	9.074853E+00	3.951033E+01
	9.074539E+00	3.951055E+01
	9.074376E+00	3.951083E+01
	9.073993E+00	3.951116E+01
	9.073435E+00	3.951152E+01
	9.071981E+00	3.951242E+01
	9.070552E+00	3.951336E+01
	9.070575E+00	3.951366E+01
	9.070459E+00	3.951399E+01
	9.070180E+00	3.951417E+01
	9.069762E+00	3.951449E+01
	9.069006E+00	3.951491E+01
	9.068413E+00	3.951515E+01
	9.067750E+00	3.951546E+01
	9.067331E+00	3.951572E+01
	9.067018E+00	3.951602E+01
	9.066692E+00	3.951632E+01
	9.066041E+00	3.951664E+01
	9.065611E+00	3.951685E+01
	9.064901E+00	3.951715E+01
	9.064436E+00	3.951742E+01
	9.064006E+00	3.951768E+01
	9.063460E+00	3.951782E+01
	9.062750E+00	3.951796E+01
	9.062413E+00	3.951810E+01
	9.062145E+00	3.951826E+01
	9.061692E+00	3.951856E+01
	9.061355E+00	3.951883E+01
	9.060959E+00	3.951906E+01
	9.060366E+00	3.951912E+01
	9.059808E+00	3.951931E+01
	9.059389E+00	3.951912E+01
	9.058935E+00	3.951912E+01
	9.058528E+00	3.951915E+01
	9.058028E+00	3.951908E+01
	9.057760E+00	3.951894E+01
	9.057155E+00	3.951890E+01
	9.056562E+00	3.951903E+01
	9.056213E+00	3.951942E+01
	9.056016E+00	3.951982E+01
	9.055760E+00	3.952026E+01
	9.055516E+00	3.952062E+01
	9.055226E+00	3.952098E+01
	9.054900E+00	3.952131E+01
	9.054447E+00	3.952181E+01
	9.053714E+00	3.952263E+01
	9.053436E+00	3.952313E+01
	9.053192E+00	3.952360E+01
	9.052994E+00	3.952403E+01
	9.052626E+00	3.952431E+01
	9.050003E+00	3.952276E+01
	9.047897E+00	3.952179E+01
	9.046069E+00	3.952084E+01
	9.044812E+00	3.952018E+01
	9.044079E+00	3.951978E+01
	9.043381E+00	3.951960E+01
	9.042765E+00	3.951959E+01
	9.042218E+00	3.951965E+01
	9.041764E+00	3.951977E+01
	9.041054E+00	3.951982E+01
	9.040426E+00	3.951962E+01
	9.039356E+00	3.951932E+01
END
END
