polygon
1
	8.826747E+00	3.948562E+01
	8.827099E+00	3.948538E+01
	8.827122E+00	3.948537E+01
	8.827174E+00	3.948533E+01
	8.827330E+00	3.948525E+01
	8.828140E+00	3.948483E+01
	8.828510E+00	3.948463E+01
	8.829362E+00	3.948407E+01
	8.830087E+00	3.948365E+01
	8.830606E+00	3.948328E+01
	8.831036E+00	3.948302E+01
	8.831681E+00	3.948260E+01
	8.832313E+00	3.948225E+01
	8.833403E+00	3.948159E+01
	8.833485E+00	3.948168E+01
	8.833664E+00	3.948192E+01
	8.834320E+00	3.948268E+01
	8.834554E+00	3.948283E+01
	8.834664E+00	3.948297E+01
	8.835959E+00	3.948312E+01
	8.838342E+00	3.948344E+01
	8.840685E+00	3.948374E+01
	8.840731E+00	3.948374E+01
	8.843748E+00	3.948414E+01
	8.848011E+00	3.948466E+01
	8.849639E+00	3.948489E+01
	8.850004E+00	3.948481E+01
	8.850827E+00	3.948465E+01
	8.852092E+00	3.948449E+01
	8.853031E+00	3.948435E+01
	8.854818E+00	3.948402E+01
	8.856400E+00	3.948366E+01
	8.857518E+00	3.948344E+01
	8.857867E+00	3.948342E+01
	8.858647E+00	3.948346E+01
	8.859153E+00	3.948356E+01
	8.859830E+00	3.948397E+01
	8.859965E+00	3.948385E+01
	8.859941E+00	3.948343E+01
	8.860185E+00	3.948312E+01
	8.860483E+00	3.948280E+01
	8.860747E+00	3.948254E+01
	8.861107E+00	3.948195E+01
	8.861571E+00	3.948139E+01
	8.862041E+00	3.948060E+01
	8.862367E+00	3.948026E+01
	8.862865E+00	3.947970E+01
	8.863350E+00	3.947913E+01
	8.863569E+00	3.947885E+01
	8.863733E+00	3.947863E+01
	8.864063E+00	3.947827E+01
	8.864384E+00	3.947777E+01
	8.863983E+00	3.947752E+01
	8.864602E+00	3.947696E+01
	8.865219E+00	3.947643E+01
	8.865918E+00	3.947577E+01
	8.865918E+00	3.947565E+01
	8.866024E+00	3.947528E+01
	8.866296E+00	3.947468E+01
	8.866485E+00	3.947424E+01
	8.866704E+00	3.947374E+01
	8.866921E+00	3.947327E+01
	8.867116E+00	3.947274E+01
	8.867341E+00	3.947224E+01
	8.867872E+00	3.947197E+01
	8.868508E+00	3.947079E+01
	8.869187E+00	3.946970E+01
	8.870050E+00	3.946834E+01
	8.870683E+00	3.946709E+01
	8.871224E+00	3.946620E+01
	8.871489E+00	3.946566E+01
	8.871516E+00	3.946561E+01
	8.871820E+00	3.946513E+01
	8.872097E+00	3.946481E+01
	8.872593E+00	3.946457E+01
	8.872731E+00	3.946426E+01
	8.872976E+00	3.946386E+01
	8.873198E+00	3.946338E+01
	8.873629E+00	3.946280E+01
	8.874153E+00	3.946219E+01
	8.875108E+00	3.946130E+01
	8.875691E+00	3.946042E+01
	8.875964E+00	3.946012E+01
	8.876215E+00	3.945985E+01
	8.876855E+00	3.945920E+01
	8.877182E+00	3.945875E+01
	8.877554E+00	3.945833E+01
	8.877866E+00	3.945797E+01
	8.878695E+00	3.945721E+01
	8.879732E+00	3.945594E+01
	8.880209E+00	3.945535E+01
	8.880431E+00	3.945508E+01
	8.881060E+00	3.945429E+01
	8.881407E+00	3.945406E+01
	8.881770E+00	3.945348E+01
	8.882015E+00	3.945314E+01
	8.882537E+00	3.945252E+01
	8.882889E+00	3.945199E+01
	8.882959E+00	3.945129E+01
	8.883390E+00	3.945096E+01
	8.883797E+00	3.945055E+01
	8.884120E+00	3.945010E+01
	8.883955E+00	3.944936E+01
	8.884051E+00	3.944899E+01
	8.884253E+00	3.944855E+01
	8.884414E+00	3.944817E+01
	8.885128E+00	3.944784E+01
	8.885929E+00	3.944770E+01
	8.886381E+00	3.944772E+01
	8.887011E+00	3.944779E+01
	8.887446E+00	3.944784E+01
	8.888062E+00	3.944802E+01
	8.888311E+00	3.944815E+01
	8.888729E+00	3.944841E+01
	8.889085E+00	3.944862E+01
	8.889290E+00	3.944895E+01
	8.889720E+00	3.944887E+01
	8.890096E+00	3.944900E+01
	8.890522E+00	3.944924E+01
	8.891197E+00	3.944946E+01
	8.890676E+00	3.944998E+01
	8.890147E+00	3.945050E+01
	8.889737E+00	3.945098E+01
	8.889892E+00	3.945123E+01
	8.889849E+00	3.945144E+01
	8.889946E+00	3.945175E+01
	8.890192E+00	3.945193E+01
	8.890839E+00	3.945220E+01
	8.891289E+00	3.945201E+01
	8.892480E+00	3.945275E+01
	8.893027E+00	3.945311E+01
	8.893420E+00	3.945334E+01
	8.893735E+00	3.945350E+01
	8.894345E+00	3.945345E+01
	8.894912E+00	3.945338E+01
	8.896193E+00	3.945323E+01
	8.896265E+00	3.945322E+01
	8.897073E+00	3.945311E+01
	8.897686E+00	3.945302E+01
	8.898427E+00	3.945300E+01
	8.900022E+00	3.945323E+01
	8.900893E+00	3.945352E+01
	8.901834E+00	3.945370E+01
	8.902668E+00	3.945389E+01
	8.903185E+00	3.945399E+01
	8.903705E+00	3.945410E+01
	8.903758E+00	3.945411E+01
	8.904035E+00	3.945416E+01
	8.904572E+00	3.945424E+01
	8.905282E+00	3.945422E+01
	8.905775E+00	3.945416E+01
	8.907203E+00	3.945425E+01
	8.907951E+00	3.945446E+01
	8.908418E+00	3.945447E+01
	8.909448E+00	3.945463E+01
	8.909799E+00	3.945472E+01
	8.910171E+00	3.945482E+01
	8.910875E+00	3.945501E+01
	8.911755E+00	3.945524E+01
	8.912775E+00	3.945538E+01
	8.913999E+00	3.945556E+01
	8.914105E+00	3.945562E+01
	8.914567E+00	3.945586E+01
	8.915157E+00	3.945603E+01
	8.915283E+00	3.945603E+01
	8.915523E+00	3.945604E+01
	8.915777E+00	3.945603E+01
	8.916202E+00	3.945606E+01
	8.916550E+00	3.945623E+01
	8.917049E+00	3.945654E+01
	8.917542E+00	3.945687E+01
	8.917695E+00	3.945702E+01
	8.917827E+00	3.945714E+01
	8.917936E+00	3.945729E+01
	8.918081E+00	3.945737E+01
	8.918559E+00	3.945756E+01
	8.918700E+00	3.945762E+01
	8.919143E+00	3.945784E+01
	8.919515E+00	3.945797E+01
	8.919910E+00	3.945812E+01
	8.920375E+00	3.945844E+01
	8.920639E+00	3.945852E+01
	8.921248E+00	3.945858E+01
	8.921528E+00	3.945861E+01
	8.921787E+00	3.945859E+01
	8.922208E+00	3.945841E+01
	8.922513E+00	3.945834E+01
	8.923021E+00	3.945852E+01
	8.923410E+00	3.945871E+01
	8.923479E+00	3.945874E+01
	8.923642E+00	3.945919E+01
	8.923908E+00	3.945942E+01
	8.924080E+00	3.945951E+01
	8.924294E+00	3.945956E+01
	8.924584E+00	3.945961E+01
	8.924879E+00	3.945962E+01
	8.925436E+00	3.945981E+01
	8.925631E+00	3.945985E+01
	8.925842E+00	3.945983E+01
	8.926192E+00	3.945968E+01
	8.926450E+00	3.945964E+01
	8.926483E+00	3.945964E+01
	8.926940E+00	3.945968E+01
	8.927346E+00	3.945978E+01
	8.927567E+00	3.945991E+01
	8.927761E+00	3.946004E+01
	8.927887E+00	3.946020E+01
	8.927991E+00	3.946036E+01
	8.928615E+00	3.946150E+01
	8.928672E+00	3.946158E+01
	8.928795E+00	3.946169E+01
	8.928927E+00	3.946175E+01
	8.929053E+00	3.946179E+01
	8.929297E+00	3.946183E+01
	8.929903E+00	3.946189E+01
	8.930160E+00	3.946192E+01
	8.930269E+00	3.946197E+01
	8.930373E+00	3.946201E+01
	8.930567E+00	3.946210E+01
	8.930779E+00	3.946221E+01
	8.930995E+00	3.946242E+01
	8.931039E+00	3.946246E+01
	8.931461E+00	3.946291E+01
	8.931967E+00	3.946334E+01
	8.932454E+00	3.946374E+01
	8.932677E+00	3.946385E+01
	8.932939E+00	3.946396E+01
	8.933311E+00	3.946407E+01
	8.933582E+00	3.946415E+01
	8.933806E+00	3.946415E+01
	8.934339E+00	3.946414E+01
	8.934706E+00	3.946412E+01
	8.935252E+00	3.946420E+01
	8.935711E+00	3.946435E+01
	8.936160E+00	3.946456E+01
	8.936517E+00	3.946473E+01
	8.936806E+00	3.946479E+01
	8.938507E+00	3.946509E+01
	8.939930E+00	3.946534E+01
	8.941385E+00	3.946536E+01
	8.942369E+00	3.946543E+01
	8.944282E+00	3.946548E+01
	8.947108E+00	3.946553E+01
	8.947201E+00	3.946553E+01
	8.949325E+00	3.946561E+01
	8.951908E+00	3.946570E+01
	8.953027E+00	3.946569E+01
	8.954778E+00	3.946570E+01
	8.955594E+00	3.946576E+01
	8.956711E+00	3.946584E+01
	8.956853E+00	3.946562E+01
	8.957184E+00	3.946466E+01
	8.957475E+00	3.946401E+01
	8.957848E+00	3.946338E+01
	8.958395E+00	3.946264E+01
	8.958825E+00	3.946192E+01
	8.959140E+00	3.946178E+01
	8.959586E+00	3.946140E+01
	8.960093E+00	3.946096E+01
	8.960660E+00	3.946045E+01
	8.961432E+00	3.945973E+01
	8.961963E+00	3.945929E+01
	8.962235E+00	3.945905E+01
	8.962965E+00	3.945842E+01
	8.963218E+00	3.945808E+01
	8.963376E+00	3.945778E+01
	8.963445E+00	3.945746E+01
	8.963416E+00	3.945734E+01
	8.964279E+00	3.945662E+01
	8.965150E+00	3.945610E+01
	8.965411E+00	3.945590E+01
	8.965317E+00	3.945581E+01
	8.965582E+00	3.945533E+01
	8.965954E+00	3.945482E+01
	8.966280E+00	3.945437E+01
	8.966489E+00	3.945414E+01
	8.966815E+00	3.945394E+01
	8.967243E+00	3.945359E+01
	8.968117E+00	3.945259E+01
	8.968838E+00	3.945128E+01
	8.969083E+00	3.945085E+01
	8.969163E+00	3.945031E+01
	8.969264E+00	3.944982E+01
	8.969335E+00	3.944930E+01
	8.969440E+00	3.944879E+01
	8.969597E+00	3.944844E+01
	8.970063E+00	3.944755E+01
	8.970322E+00	3.944695E+01
	8.970552E+00	3.944636E+01
	8.970920E+00	3.944553E+01
	8.971099E+00	3.944516E+01
	8.971566E+00	3.944411E+01
	8.972040E+00	3.944309E+01
	8.972199E+00	3.944273E+01
	8.972495E+00	3.944207E+01
	8.972725E+00	3.944161E+01
	8.972949E+00	3.944112E+01
	8.973362E+00	3.944020E+01
	8.973663E+00	3.943982E+01
	8.973932E+00	3.943946E+01
	8.974009E+00	3.943926E+01
	8.973964E+00	3.943905E+01
	8.973845E+00	3.943865E+01
	8.973814E+00	3.943846E+01
	8.974256E+00	3.943819E+01
	8.974490E+00	3.943794E+01
	8.975114E+00	3.943716E+01
	8.975640E+00	3.943482E+01
	8.976422E+00	3.943291E+01
	8.976775E+00	3.943202E+01
	8.976864E+00	3.943179E+01
	8.977784E+00	3.943008E+01
	8.978246E+00	3.942897E+01
	8.978034E+00	3.942890E+01
	8.978421E+00	3.942797E+01
	8.978504E+00	3.942686E+01
	8.978609E+00	3.942578E+01
	8.978597E+00	3.942486E+01
	8.978573E+00	3.942440E+01
	8.978312E+00	3.942372E+01
	8.978337E+00	3.942345E+01
	8.978112E+00	3.942194E+01
	8.976310E+00	3.942071E+01
	8.975141E+00	3.941961E+01
	8.974673E+00	3.941943E+01
	8.973589E+00	3.941893E+01
	8.973007E+00	3.941871E+01
	8.972639E+00	3.941843E+01
	8.972245E+00	3.941820E+01
	8.971908E+00	3.941811E+01
	8.971502E+00	3.941772E+01
	8.971059E+00	3.941732E+01
	8.970538E+00	3.941690E+01
	8.969830E+00	3.941631E+01
	8.969662E+00	3.941631E+01
	8.968999E+00	3.941592E+01
	8.968448E+00	3.941531E+01
	8.966020E+00	3.941414E+01
	8.964290E+00	3.941325E+01
	8.963207E+00	3.941276E+01
	8.962670E+00	3.941257E+01
	8.961553E+00	3.941223E+01
	8.960418E+00	3.941188E+01
	8.958983E+00	3.941133E+01
	8.957320E+00	3.941068E+01
	8.956301E+00	3.941027E+01
	8.955387E+00	3.940996E+01
	8.954534E+00	3.940968E+01
	8.954015E+00	3.940952E+01
	8.953507E+00	3.940933E+01
	8.953074E+00	3.940922E+01
	8.952639E+00	3.940907E+01
	8.952319E+00	3.940893E+01
	8.951949E+00	3.940878E+01
	8.951105E+00	3.940849E+01
	8.950399E+00	3.940831E+01
	8.949913E+00	3.940818E+01
	8.949445E+00	3.940797E+01
	8.947926E+00	3.940746E+01
	8.946909E+00	3.940717E+01
	8.946291E+00	3.940693E+01
	8.945466E+00	3.940664E+01
	8.945159E+00	3.940646E+01
	8.943762E+00	3.940598E+01
	8.943014E+00	3.940572E+01
	8.942223E+00	3.940549E+01
	8.941824E+00	3.940534E+01
	8.940519E+00	3.940469E+01
	8.939570E+00	3.940425E+01
	8.939020E+00	3.940395E+01
	8.938472E+00	3.940375E+01
	8.938167E+00	3.940359E+01
	8.937895E+00	3.940344E+01
	8.937416E+00	3.940318E+01
	8.936949E+00	3.940280E+01
	8.936668E+00	3.940253E+01
	8.936426E+00	3.940234E+01
	8.936237E+00	3.940227E+01
	8.935759E+00	3.940209E+01
	8.935143E+00	3.940188E+01
	8.934761E+00	3.940173E+01
	8.934370E+00	3.940159E+01
	8.934186E+00	3.940152E+01
	8.933932E+00	3.940153E+01
	8.933055E+00	3.940113E+01
	8.932530E+00	3.940087E+01
	8.931962E+00	3.940061E+01
	8.931603E+00	3.940046E+01
	8.931619E+00	3.940042E+01
	8.931528E+00	3.940039E+01
	8.931176E+00	3.940025E+01
	8.931105E+00	3.940018E+01
	8.931089E+00	3.940003E+01
	8.929978E+00	3.939954E+01
	8.929270E+00	3.939944E+01
	8.928700E+00	3.939953E+01
	8.928323E+00	3.939945E+01
	8.928131E+00	3.939941E+01
	8.927818E+00	3.939933E+01
	8.927247E+00	3.939930E+01
	8.926756E+00	3.939942E+01
	8.926401E+00	3.939942E+01
	8.925936E+00	3.939935E+01
	8.925170E+00	3.939928E+01
	8.924670E+00	3.939934E+01
	8.924081E+00	3.939916E+01
	8.923695E+00	3.939925E+01
	8.923531E+00	3.939923E+01
	8.923449E+00	3.939922E+01
	8.923361E+00	3.939921E+01
	8.923219E+00	3.939920E+01
	8.922545E+00	3.939914E+01
	8.921628E+00	3.939901E+01
	8.920734E+00	3.939892E+01
	8.920049E+00	3.939887E+01
	8.918945E+00	3.939880E+01
	8.918237E+00	3.939878E+01
	8.917540E+00	3.939888E+01
	8.917192E+00	3.939896E+01
	8.916727E+00	3.939897E+01
	8.915949E+00	3.939899E+01
	8.915031E+00	3.939894E+01
	8.914474E+00	3.939887E+01
	8.914114E+00	3.939894E+01
	8.913766E+00	3.939882E+01
	8.913278E+00	3.939869E+01
	8.912767E+00	3.939857E+01
	8.911664E+00	3.939846E+01
	8.911317E+00	3.939844E+01
	8.911107E+00	3.939842E+01
	8.910610E+00	3.939824E+01
	8.910030E+00	3.939820E+01
	8.909684E+00	3.939818E+01
	8.909296E+00	3.939814E+01
	8.908355E+00	3.939811E+01
	8.907030E+00	3.939801E+01
	8.903677E+00	3.939800E+01
	8.902554E+00	3.939808E+01
	8.900929E+00	3.939812E+01
	8.899331E+00	3.939807E+01
	8.897902E+00	3.939799E+01
	8.894939E+00	3.939796E+01
	8.894025E+00	3.939800E+01
	8.893033E+00	3.939803E+01
	8.889947E+00	3.939819E+01
	8.888662E+00	3.939822E+01
	8.887350E+00	3.939834E+01
	8.887017E+00	3.939838E+01
	8.885640E+00	3.939827E+01
	8.885081E+00	3.939820E+01
	8.884707E+00	3.939813E+01
	8.884317E+00	3.939803E+01
	8.883943E+00	3.939809E+01
	8.883877E+00	3.939810E+01
	8.882990E+00	3.939825E+01
	8.881015E+00	3.939855E+01
	8.880481E+00	3.939880E+01
	8.880050E+00	3.939921E+01
	8.879666E+00	3.939966E+01
	8.879201E+00	3.939984E+01
	8.878225E+00	3.940012E+01
	8.877660E+00	3.940009E+01
	8.876772E+00	3.940007E+01
	8.876295E+00	3.940007E+01
	8.875873E+00	3.940002E+01
	8.875105E+00	3.939999E+01
	8.873605E+00	3.939960E+01
	8.873085E+00	3.939970E+01
	8.872934E+00	3.940024E+01
	8.872415E+00	3.940035E+01
	8.872325E+00	3.940036E+01
	8.871493E+00	3.940043E+01
	8.870667E+00	3.940055E+01
	8.869763E+00	3.940071E+01
	8.868899E+00	3.940091E+01
	8.867757E+00	3.940122E+01
	8.866591E+00	3.940155E+01
	8.865153E+00	3.940217E+01
	8.864818E+00	3.940231E+01
	8.864121E+00	3.940264E+01
	8.863609E+00	3.940296E+01
	8.863204E+00	3.940319E+01
	8.862793E+00	3.940324E+01
	8.862559E+00	3.940337E+01
	8.861772E+00	3.940368E+01
	8.860947E+00	3.940396E+01
	8.860486E+00	3.940409E+01
	8.860106E+00	3.940418E+01
	8.859576E+00	3.940433E+01
	8.856983E+00	3.940507E+01
	8.856775E+00	3.940523E+01
	8.855857E+00	3.940554E+01
	8.854555E+00	3.940591E+01
	8.853986E+00	3.940608E+01
	8.852835E+00	3.940644E+01
	8.851459E+00	3.940682E+01
	8.851290E+00	3.940653E+01
	8.851114E+00	3.940622E+01
	8.850071E+00	3.940648E+01
	8.849455E+00	3.940658E+01
	8.848880E+00	3.940655E+01
	8.847503E+00	3.940696E+01
	8.844531E+00	3.940787E+01
	8.844122E+00	3.940807E+01
	8.842806E+00	3.940842E+01
	8.840924E+00	3.940906E+01
	8.840014E+00	3.940933E+01
	8.838702E+00	3.940977E+01
	8.837274E+00	3.941031E+01
	8.836692E+00	3.941052E+01
	8.836135E+00	3.941073E+01
	8.835455E+00	3.941109E+01
	8.835420E+00	3.941112E+01
	8.835052E+00	3.941140E+01
	8.833836E+00	3.941196E+01
	8.833664E+00	3.941202E+01
	8.833268E+00	3.941218E+01
	8.832138E+00	3.941262E+01
	8.831541E+00	3.941286E+01
	8.830668E+00	3.941326E+01
	8.829665E+00	3.941385E+01
	8.829305E+00	3.941400E+01
	8.828893E+00	3.941415E+01
	8.828545E+00	3.941425E+01
	8.828176E+00	3.941435E+01
	8.827393E+00	3.941458E+01
	8.827379E+00	3.941500E+01
	8.827501E+00	3.941531E+01
	8.827659E+00	3.941573E+01
	8.827827E+00	3.941611E+01
	8.827981E+00	3.941635E+01
	8.828148E+00	3.941673E+01
	8.828427E+00	3.941731E+01
	8.828609E+00	3.941762E+01
	8.828832E+00	3.941809E+01
	8.828913E+00	3.941834E+01
	8.828993E+00	3.941853E+01
	8.829074E+00	3.941894E+01
	8.829077E+00	3.941924E+01
	8.828971E+00	3.941965E+01
	8.828852E+00	3.942013E+01
	8.828813E+00	3.942074E+01
	8.828754E+00	3.942124E+01
	8.828674E+00	3.942138E+01
	8.828751E+00	3.942174E+01
	8.828720E+00	3.942233E+01
	8.828700E+00	3.942334E+01
	8.828672E+00	3.942394E+01
	8.828651E+00	3.942491E+01
	8.828937E+00	3.942656E+01
	8.829055E+00	3.942704E+01
	8.829186E+00	3.942762E+01
	8.829287E+00	3.942791E+01
	8.829390E+00	3.942827E+01
	8.829539E+00	3.942881E+01
	8.829561E+00	3.942932E+01
	8.829658E+00	3.942964E+01
	8.830012E+00	3.943038E+01
	8.830135E+00	3.943095E+01
	8.830140E+00	3.943180E+01
	8.830281E+00	3.943265E+01
	8.830375E+00	3.943334E+01
	8.830433E+00	3.943380E+01
	8.830500E+00	3.943441E+01
	8.830634E+00	3.943512E+01
	8.830662E+00	3.943577E+01
	8.830807E+00	3.943656E+01
	8.830774E+00	3.943705E+01
	8.830978E+00	3.943730E+01
	8.831374E+00	3.943759E+01
	8.831805E+00	3.943773E+01
	8.832153E+00	3.943784E+01
	8.832414E+00	3.943798E+01
	8.832696E+00	3.943832E+01
	8.833010E+00	3.943875E+01
	8.833197E+00	3.943924E+01
	8.833101E+00	3.943952E+01
	8.833262E+00	3.943962E+01
	8.833617E+00	3.943982E+01
	8.833755E+00	3.944002E+01
	8.833220E+00	3.944030E+01
	8.832961E+00	3.944042E+01
	8.832855E+00	3.944153E+01
	8.832796E+00	3.944166E+01
	8.832719E+00	3.944182E+01
	8.832539E+00	3.944220E+01
	8.832248E+00	3.944258E+01
	8.831723E+00	3.944335E+01
	8.831425E+00	3.944399E+01
	8.831286E+00	3.944442E+01
	8.831242E+00	3.944470E+01
	8.831066E+00	3.944514E+01
	8.830856E+00	3.944637E+01
	8.830701E+00	3.944857E+01
	8.830652E+00	3.944965E+01
	8.830632E+00	3.945026E+01
	8.830637E+00	3.945065E+01
	8.830606E+00	3.945112E+01
	8.830588E+00	3.945160E+01
	8.830325E+00	3.945554E+01
	8.830238E+00	3.945815E+01
	8.830211E+00	3.945916E+01
	8.830269E+00	3.945957E+01
	8.830329E+00	3.946131E+01
	8.830498E+00	3.946241E+01
	8.830521E+00	3.946369E+01
	8.830499E+00	3.946435E+01
	8.830255E+00	3.946514E+01
	8.829910E+00	3.946609E+01
	8.829479E+00	3.946694E+01
	8.829120E+00	3.946798E+01
	8.828752E+00	3.946890E+01
	8.828357E+00	3.947005E+01
	8.828210E+00	3.947048E+01
	8.827752E+00	3.947169E+01
	8.827538E+00	3.947224E+01
	8.827326E+00	3.947279E+01
	8.827189E+00	3.947342E+01
	8.827025E+00	3.947434E+01
	8.826789E+00	3.947575E+01
	8.826669E+00	3.947652E+01
	8.826619E+00	3.947689E+01
	8.826479E+00	3.947766E+01
	8.826390E+00	3.947817E+01
	8.826276E+00	3.947878E+01
	8.826180E+00	3.947959E+01
	8.826201E+00	3.948010E+01
	8.826227E+00	3.948050E+01
	8.826262E+00	3.948087E+01
	8.826307E+00	3.948154E+01
	8.826327E+00	3.948175E+01
	8.826347E+00	3.948197E+01
	8.826352E+00	3.948225E+01
	8.826383E+00	3.948266E+01
	8.826426E+00	3.948324E+01
	8.826457E+00	3.948366E+01
	8.826476E+00	3.948397E+01
	8.826524E+00	3.948407E+01
	8.826687E+00	3.948438E+01
	8.826696E+00	3.948439E+01
	8.826773E+00	3.948450E+01
	8.826806E+00	3.948465E+01
	8.826751E+00	3.948491E+01
	8.826723E+00	3.948517E+01
	8.826747E+00	3.948562E+01
END
END
