polygon
1
	8.876617E+00	3.969220E+01
	8.876909E+00	3.969201E+01
	8.877050E+00	3.969154E+01
	8.876957E+00	3.969126E+01
	8.876888E+00	3.969090E+01
	8.877520E+00	3.968971E+01
	8.878126E+00	3.968956E+01
	8.878512E+00	3.968931E+01
	8.879178E+00	3.968860E+01
	8.878526E+00	3.968808E+01
	8.878398E+00	3.968775E+01
	8.878773E+00	3.968667E+01
	8.879207E+00	3.968541E+01
	8.879557E+00	3.968511E+01
	8.880350E+00	3.968495E+01
	8.880747E+00	3.968492E+01
	8.881201E+00	3.968499E+01
	8.881388E+00	3.968519E+01
	8.881539E+00	3.968550E+01
	8.882716E+00	3.968597E+01
	8.883345E+00	3.968618E+01
	8.883788E+00	3.968631E+01
	8.884138E+00	3.968640E+01
	8.884546E+00	3.968650E+01
	8.885012E+00	3.968655E+01
	8.885840E+00	3.968657E+01
	8.886459E+00	3.968635E+01
	8.886984E+00	3.968620E+01
	8.888407E+00	3.968582E+01
	8.888874E+00	3.968571E+01
	8.889200E+00	3.968565E+01
	8.889632E+00	3.968565E+01
	8.890308E+00	3.968559E+01
	8.891393E+00	3.968539E+01
	8.892140E+00	3.968524E+01
	8.892618E+00	3.968505E+01
	8.893531E+00	3.968451E+01
	8.893727E+00	3.968439E+01
	8.895256E+00	3.968324E+01
	8.896727E+00	3.968213E+01
	8.896984E+00	3.968196E+01
	8.896145E+00	3.968130E+01
	8.896367E+00	3.968104E+01
	8.897464E+00	3.968046E+01
	8.899867E+00	3.968015E+01
	8.902433E+00	3.967987E+01
	8.902838E+00	3.967983E+01
	8.903191E+00	3.967979E+01
	8.904591E+00	3.967944E+01
	8.905641E+00	3.967904E+01
	8.907227E+00	3.967879E+01
	8.907810E+00	3.967865E+01
	8.908335E+00	3.967826E+01
	8.908720E+00	3.967824E+01
	8.909140E+00	3.967825E+01
	8.909571E+00	3.967820E+01
	8.910003E+00	3.967780E+01
	8.910272E+00	3.967754E+01
	8.910564E+00	3.967736E+01
	8.911077E+00	3.967709E+01
	8.912068E+00	3.967689E+01
	8.912663E+00	3.967678E+01
	8.913048E+00	3.967674E+01
	8.913503E+00	3.967672E+01
	8.913748E+00	3.967626E+01
	8.913690E+00	3.967596E+01
	8.913469E+00	3.967544E+01
	8.913050E+00	3.967530E+01
	8.912583E+00	3.967525E+01
	8.912503E+00	3.967464E+01
	8.912760E+00	3.967411E+01
	8.913028E+00	3.967386E+01
	8.913436E+00	3.967405E+01
	8.913844E+00	3.967409E+01
	8.914229E+00	3.967411E+01
	8.914415E+00	3.967439E+01
	8.914391E+00	3.967470E+01
	8.914776E+00	3.967499E+01
	8.915394E+00	3.967497E+01
	8.915755E+00	3.967521E+01
	8.915918E+00	3.967542E+01
	8.915929E+00	3.967570E+01
	8.915882E+00	3.967606E+01
	8.915111E+00	3.967766E+01
	8.914900E+00	3.967799E+01
	8.915110E+00	3.967828E+01
	8.915285E+00	3.967851E+01
	8.915272E+00	3.967889E+01
	8.915307E+00	3.967915E+01
	8.915575E+00	3.967938E+01
	8.915960E+00	3.967950E+01
	8.916321E+00	3.967971E+01
	8.916729E+00	3.967999E+01
	8.917171E+00	3.968032E+01
	8.917498E+00	3.968049E+01
	8.917813E+00	3.968041E+01
	8.918361E+00	3.968040E+01
	8.918769E+00	3.968044E+01
	8.920029E+00	3.967957E+01
	8.920693E+00	3.967992E+01
	8.921090E+00	3.967965E+01
	8.921801E+00	3.968002E+01
	8.922583E+00	3.967910E+01
	8.923236E+00	3.967947E+01
	8.923644E+00	3.967917E+01
	8.924087E+00	3.967946E+01
	8.925032E+00	3.967892E+01
	8.925219E+00	3.967913E+01
	8.925709E+00	3.967882E+01
	8.926454E+00	3.967941E+01
	8.927540E+00	3.967789E+01
	8.928066E+00	3.967710E+01
	8.928381E+00	3.967665E+01
	8.928615E+00	3.967641E+01
	8.929081E+00	3.967688E+01
	8.929862E+00	3.967686E+01
	8.930480E+00	3.967671E+01
	8.931855E+00	3.967723E+01
	8.933291E+00	3.967622E+01
	8.936042E+00	3.967709E+01
	8.936450E+00	3.967710E+01
	8.936509E+00	3.967646E+01
	8.936882E+00	3.967652E+01
	8.937220E+00	3.967664E+01
	8.937628E+00	3.967685E+01
	8.937919E+00	3.967705E+01
	8.938094E+00	3.967727E+01
	8.938653E+00	3.967717E+01
	8.938851E+00	3.967757E+01
	8.939446E+00	3.967767E+01
	8.939761E+00	3.967790E+01
	8.939900E+00	3.967816E+01
	8.939667E+00	3.967836E+01
	8.936085E+00	3.968025E+01
	8.933705E+00	3.968162E+01
	8.933472E+00	3.968180E+01
	8.933192E+00	3.968213E+01
	8.932701E+00	3.968309E+01
	8.932525E+00	3.968390E+01
	8.932198E+00	3.968450E+01
	8.931707E+00	3.968545E+01
	8.931462E+00	3.968585E+01
	8.930937E+00	3.968624E+01
	8.927985E+00	3.968768E+01
	8.922663E+00	3.969103E+01
	8.921006E+00	3.969208E+01
	8.914564E+00	3.969585E+01
	8.912171E+00	3.969719E+01
	8.911658E+00	3.969710E+01
	8.911086E+00	3.969714E+01
	8.910456E+00	3.969723E+01
	8.909616E+00	3.969778E+01
	8.909254E+00	3.969816E+01
	8.908891E+00	3.969863E+01
	8.908401E+00	3.969909E+01
	8.907946E+00	3.969946E+01
	8.907368E+00	3.969982E+01
	8.907306E+00	3.969986E+01
	8.907234E+00	3.969991E+01
	8.906685E+00	3.970027E+01
	8.906358E+00	3.970054E+01
	8.906042E+00	3.970102E+01
	8.905481E+00	3.970203E+01
	8.905317E+00	3.970250E+01
	8.905176E+00	3.970288E+01
	8.905083E+00	3.970321E+01
	8.905152E+00	3.970361E+01
	8.905117E+00	3.970386E+01
	8.904941E+00	3.970423E+01
	8.904789E+00	3.970447E+01
	8.904544E+00	3.970465E+01
	8.904136E+00	3.970473E+01
	8.903798E+00	3.970470E+01
	8.903459E+00	3.970463E+01
	8.903051E+00	3.970453E+01
	8.901464E+00	3.970512E+01
	8.901265E+00	3.970532E+01
	8.900892E+00	3.970566E+01
	8.900530E+00	3.970596E+01
	8.900110E+00	3.970599E+01
	8.899771E+00	3.970601E+01
	8.898615E+00	3.970681E+01
	8.898347E+00	3.970703E+01
	8.898008E+00	3.970708E+01
	8.897646E+00	3.970738E+01
	8.897179E+00	3.970758E+01
	8.896806E+00	3.970774E+01
	8.896199E+00	3.970792E+01
	8.895405E+00	3.970812E+01
	8.894868E+00	3.970837E+01
	8.894250E+00	3.970872E+01
	8.893666E+00	3.970910E+01
	8.893433E+00	3.970892E+01
	8.893165E+00	3.970865E+01
	8.893014E+00	3.970837E+01
	8.892933E+00	3.970789E+01
	8.893096E+00	3.970755E+01
	8.890788E+00	3.970680E+01
	8.889692E+00	3.970651E+01
	8.889039E+00	3.970630E+01
	8.888293E+00	3.970612E+01
	8.887220E+00	3.970595E+01
	8.885540E+00	3.970567E+01
	8.883605E+00	3.970535E+01
	8.882298E+00	3.970505E+01
	8.881902E+00	3.970491E+01
	8.881471E+00	3.970485E+01
	8.880111E+00	3.970187E+01
	8.879879E+00	3.970113E+01
	8.879857E+00	3.970056E+01
	8.879626E+00	3.969913E+01
	8.879233E+00	3.969670E+01
	8.878863E+00	3.969503E+01
	8.878747E+00	3.969451E+01
	8.878538E+00	3.969416E+01
	8.877886E+00	3.969350E+01
	8.877257E+00	3.969297E+01
	8.876617E+00	3.969220E+01
END
END
