polygon
1
	3.976012E+00	4.898692E+01
	3.976025E+00	4.898689E+01
	3.976205E+00	4.898657E+01
	3.976360E+00	4.898617E+01
	3.976464E+00	4.898594E+01
	3.976468E+00	4.898588E+01
	3.976529E+00	4.898567E+01
	3.976554E+00	4.898565E+01
	3.976542E+00	4.898565E+01
	3.976790E+00	4.898490E+01
	3.976805E+00	4.898490E+01
	3.976804E+00	4.898486E+01
	3.977066E+00	4.898408E+01
	3.977273E+00	4.898352E+01
	3.977630E+00	4.898246E+01
	3.978113E+00	4.898141E+01
	3.978141E+00	4.898137E+01
	3.978553E+00	4.898014E+01
	3.978919E+00	4.897892E+01
	3.979230E+00	4.897799E+01
	3.979471E+00	4.897734E+01
	3.979530E+00	4.897724E+01
	3.980151E+00	4.897665E+01
	3.980182E+00	4.897665E+01
	3.982729E+00	4.897707E+01
	3.983408E+00	4.897720E+01
	3.983593E+00	4.897721E+01
	3.984027E+00	4.897723E+01
	3.984763E+00	4.897729E+01
	3.986805E+00	4.897739E+01
	3.986990E+00	4.897742E+01
	3.988035E+00	4.897762E+01
	3.988346E+00	4.897769E+01
	3.988410E+00	4.897770E+01
	3.990685E+00	4.897766E+01
	3.990731E+00	4.897763E+01
	3.991008E+00	4.897762E+01
	3.991778E+00	4.897764E+01
	3.993173E+00	4.897766E+01
	3.993315E+00	4.897767E+01
	3.994784E+00	4.897770E+01
	3.995335E+00	4.897773E+01
	3.995924E+00	4.897783E+01
	3.996168E+00	4.897786E+01
	3.996231E+00	4.897789E+01
	3.996344E+00	4.897797E+01
	3.996981E+00	4.897836E+01
	3.997035E+00	4.897839E+01
	3.997100E+00	4.897839E+01
	3.997408E+00	4.897852E+01
	3.997599E+00	4.897862E+01
	3.997741E+00	4.897871E+01
	3.997933E+00	4.897886E+01
	3.997994E+00	4.897883E+01
	3.998060E+00	4.897876E+01
	3.998121E+00	4.897873E+01
	3.998250E+00	4.897884E+01
	3.998239E+00	4.897884E+01
	3.998382E+00	4.897895E+01
	3.998801E+00	4.897933E+01
	3.998858E+00	4.897936E+01
	3.998885E+00	4.897937E+01
	3.998965E+00	4.897935E+01
	3.999000E+00	4.897935E+01
	3.999079E+00	4.897938E+01
	3.999426E+00	4.897958E+01
	3.999615E+00	4.897968E+01
	3.999677E+00	4.897968E+01
	4.000569E+00	4.898003E+01
	4.001244E+00	4.898027E+01
	4.001403E+00	4.898033E+01
	4.001414E+00	4.898035E+01
	4.001406E+00	4.898039E+01
	4.001438E+00	4.898041E+01
	4.001841E+00	4.898055E+01
	4.001868E+00	4.898059E+01
	4.002035E+00	4.898064E+01
	4.002420E+00	4.898074E+01
	4.002415E+00	4.898075E+01
	4.002429E+00	4.898075E+01
	4.002821E+00	4.898085E+01
	4.003048E+00	4.898093E+01
	4.003071E+00	4.898092E+01
	4.003237E+00	4.898097E+01
	4.003266E+00	4.898099E+01
	4.003252E+00	4.898104E+01
	4.003316E+00	4.898105E+01
	4.004182E+00	4.898120E+01
	4.004298E+00	4.898121E+01
	4.004330E+00	4.898116E+01
	4.004352E+00	4.898115E+01
	4.005028E+00	4.898125E+01
	4.005104E+00	4.898127E+01
	4.005119E+00	4.898133E+01
	4.005238E+00	4.898136E+01
	4.006755E+00	4.898164E+01
	4.006808E+00	4.898162E+01
	4.006931E+00	4.898151E+01
	4.007186E+00	4.898156E+01
	4.007210E+00	4.898158E+01
	4.007259E+00	4.898157E+01
	4.007599E+00	4.898165E+01
	4.007764E+00	4.898167E+01
	4.008149E+00	4.898176E+01
	4.008249E+00	4.898178E+01
	4.008580E+00	4.898186E+01
	4.008646E+00	4.898186E+01
	4.008734E+00	4.898188E+01
	4.008800E+00	4.898189E+01
	4.009415E+00	4.898202E+01
	4.009612E+00	4.898205E+01
	4.009682E+00	4.898207E+01
	4.010273E+00	4.898215E+01
	4.010343E+00	4.898217E+01
	4.010313E+00	4.898239E+01
	4.010324E+00	4.898240E+01
	4.010307E+00	4.898241E+01
	4.010315E+00	4.898245E+01
	4.010354E+00	4.898246E+01
	4.011892E+00	4.898263E+01
	4.013810E+00	4.898271E+01
	4.013844E+00	4.898272E+01
	4.013856E+00	4.898274E+01
	4.013841E+00	4.898286E+01
	4.013854E+00	4.898288E+01
	4.014567E+00	4.898290E+01
	4.014622E+00	4.898291E+01
	4.014637E+00	4.898293E+01
	4.014644E+00	4.898316E+01
	4.014664E+00	4.898317E+01
	4.014807E+00	4.898318E+01
	4.014859E+00	4.898317E+01
	4.015519E+00	4.898292E+01
	4.015577E+00	4.898291E+01
	4.016318E+00	4.898268E+01
	4.016893E+00	4.898244E+01
	4.017834E+00	4.898198E+01
	4.018145E+00	4.898185E+01
	4.018861E+00	4.898148E+01
	4.018962E+00	4.898145E+01
	4.018978E+00	4.898149E+01
	4.019080E+00	4.898233E+01
	4.019116E+00	4.898234E+01
	4.019342E+00	4.898233E+01
	4.019407E+00	4.898232E+01
	4.019432E+00	4.898229E+01
	4.019734E+00	4.898223E+01
	4.019737E+00	4.898221E+01
	4.019631E+00	4.898198E+01
	4.019636E+00	4.898195E+01
	4.019663E+00	4.898194E+01
	4.020305E+00	4.898192E+01
	4.020435E+00	4.898192E+01
	4.020461E+00	4.898194E+01
	4.020485E+00	4.898224E+01
	4.020499E+00	4.898225E+01
	4.020690E+00	4.898226E+01
	4.021049E+00	4.898225E+01
	4.021994E+00	4.898227E+01
	4.022015E+00	4.898228E+01
	4.022027E+00	4.898229E+01
	4.022017E+00	4.898276E+01
	4.022032E+00	4.898277E+01
	4.022774E+00	4.898278E+01
	4.022811E+00	4.898277E+01
	4.022821E+00	4.898276E+01
	4.022910E+00	4.898125E+01
	4.022933E+00	4.898120E+01
	4.023173E+00	4.898143E+01
	4.023557E+00	4.898175E+01
	4.023590E+00	4.898177E+01
	4.023703E+00	4.898191E+01
	4.023745E+00	4.898192E+01
	4.023914E+00	4.898190E+01
	4.024193E+00	4.898189E+01
	4.024209E+00	4.898190E+01
	4.024215E+00	4.898229E+01
	4.024125E+00	4.898412E+01
	4.024140E+00	4.898414E+01
	4.024291E+00	4.898416E+01
	4.024300E+00	4.898418E+01
	4.024272E+00	4.898448E+01
	4.024199E+00	4.898496E+01
	4.024208E+00	4.898497E+01
	4.024568E+00	4.898502E+01
	4.024593E+00	4.898503E+01
	4.024597E+00	4.898505E+01
	4.024429E+00	4.898574E+01
	4.024254E+00	4.898571E+01
	4.024229E+00	4.898571E+01
	4.024215E+00	4.898573E+01
	4.024269E+00	4.898777E+01
	4.024248E+00	4.899002E+01
	4.024308E+00	4.899005E+01
	4.024317E+00	4.899082E+01
	4.024770E+00	4.899307E+01
	4.024776E+00	4.899315E+01
	4.024759E+00	4.899317E+01
	4.024482E+00	4.899320E+01
	4.024466E+00	4.899321E+01
	4.024435E+00	4.899532E+01
	4.024480E+00	4.899537E+01
	4.024584E+00	4.899603E+01
	4.024773E+00	4.899774E+01
	4.024781E+00	4.899832E+01
	4.024758E+00	4.899838E+01
	4.024730E+00	4.899840E+01
	4.024729E+00	4.899839E+01
	4.024520E+00	4.899835E+01
	4.024506E+00	4.899834E+01
	4.024493E+00	4.899833E+01
	4.021228E+00	4.899777E+01
	4.018726E+00	4.899733E+01
	4.018192E+00	4.899721E+01
	4.017681E+00	4.899706E+01
	4.016937E+00	4.899913E+01
	4.014135E+00	4.899869E+01
	4.014019E+00	4.899866E+01
	4.014419E+00	4.899798E+01
	4.014420E+00	4.899796E+01
	4.014398E+00	4.899795E+01
	4.013011E+00	4.899768E+01
	4.012465E+00	4.899754E+01
	4.012349E+00	4.899750E+01
	4.011540E+00	4.899739E+01
	4.011346E+00	4.899737E+01
	4.011323E+00	4.899737E+01
	4.011311E+00	4.899736E+01
	4.011207E+00	4.899736E+01
	4.011187E+00	4.899736E+01
	4.011128E+00	4.899736E+01
	4.011091E+00	4.899734E+01
	4.011094E+00	4.899722E+01
	4.011107E+00	4.899665E+01
	4.011096E+00	4.899657E+01
	4.010926E+00	4.899610E+01
	4.010887E+00	4.899587E+01
	4.010866E+00	4.899565E+01
	4.010846E+00	4.899562E+01
	4.010826E+00	4.899561E+01
	4.010288E+00	4.899559E+01
	4.010270E+00	4.899559E+01
	4.010246E+00	4.899514E+01
	4.010227E+00	4.899510E+01
	4.010203E+00	4.899509E+01
	4.010000E+00	4.899505E+01
	4.009831E+00	4.899504E+01
	4.009267E+00	4.899503E+01
	4.009247E+00	4.899502E+01
	4.009225E+00	4.899496E+01
	4.009168E+00	4.899465E+01
	4.009157E+00	4.899448E+01
	4.009166E+00	4.899440E+01
	4.009314E+00	4.899406E+01
	4.009483E+00	4.899375E+01
	4.009562E+00	4.899354E+01
	4.009552E+00	4.899347E+01
	4.009529E+00	4.899346E+01
	4.008385E+00	4.899334E+01
	4.008363E+00	4.899333E+01
	4.008350E+00	4.899330E+01
	4.008343E+00	4.899299E+01
	4.008325E+00	4.899293E+01
	4.008278E+00	4.899285E+01
	4.007910E+00	4.899243E+01
	4.007309E+00	4.899153E+01
	4.007224E+00	4.899143E+01
	4.006413E+00	4.899080E+01
	4.006192E+00	4.899061E+01
	4.005972E+00	4.899038E+01
	4.005854E+00	4.899028E+01
	4.004595E+00	4.898951E+01
	4.004509E+00	4.898945E+01
	4.004409E+00	4.898935E+01
	4.004298E+00	4.898930E+01
	4.003961E+00	4.898921E+01
	4.003364E+00	4.898899E+01
	4.003186E+00	4.898894E+01
	4.003014E+00	4.898890E+01
	4.002277E+00	4.898880E+01
	4.001754E+00	4.898868E+01
	4.001621E+00	4.898866E+01
	4.000857E+00	4.898860E+01
	4.000410E+00	4.898854E+01
	4.000095E+00	4.898854E+01
	3.999005E+00	4.898876E+01
	3.998809E+00	4.898881E+01
	3.998628E+00	4.898888E+01
	3.998545E+00	4.898893E+01
	3.998408E+00	4.898902E+01
	3.998293E+00	4.898913E+01
	3.998194E+00	4.898924E+01
	3.997582E+00	4.899002E+01
	3.997168E+00	4.899059E+01
	3.997110E+00	4.899066E+01
	3.996622E+00	4.899100E+01
	3.996423E+00	4.899088E+01
	3.996442E+00	4.899101E+01
	3.996378E+00	4.899124E+01
	3.995924E+00	4.899109E+01
	3.995901E+00	4.899110E+01
	3.995416E+00	4.899170E+01
	3.995228E+00	4.899164E+01
	3.995188E+00	4.899164E+01
	3.994799E+00	4.899223E+01
	3.994611E+00	4.899257E+01
	3.994263E+00	4.899326E+01
	3.993957E+00	4.899377E+01
	3.993943E+00	4.899382E+01
	3.994356E+00	4.899409E+01
	3.994395E+00	4.899412E+01
	3.993632E+00	4.899445E+01
	3.993459E+00	4.899452E+01
	3.993356E+00	4.899457E+01
	3.993147E+00	4.899473E+01
	3.992794E+00	4.899505E+01
	3.992716E+00	4.899511E+01
	3.992390E+00	4.899527E+01
	3.992045E+00	4.899548E+01
	3.991443E+00	4.899586E+01
	3.991071E+00	4.899612E+01
	3.990667E+00	4.899649E+01
	3.990449E+00	4.899666E+01
	3.990150E+00	4.899685E+01
	3.989372E+00	4.899730E+01
	3.988920E+00	4.899762E+01
	3.988900E+00	4.899759E+01
	3.987904E+00	4.899708E+01
	3.987698E+00	4.899697E+01
	3.987667E+00	4.899693E+01
	3.987060E+00	4.899657E+01
	3.986892E+00	4.899645E+01
	3.986901E+00	4.899643E+01
	3.987263E+00	4.899623E+01
	3.987278E+00	4.899622E+01
	3.987276E+00	4.899620E+01
	3.986038E+00	4.899526E+01
	3.986044E+00	4.899520E+01
	3.985941E+00	4.899508E+01
	3.984916E+00	4.899413E+01
	3.984896E+00	4.899413E+01
	3.984495E+00	4.899433E+01
	3.984454E+00	4.899433E+01
	3.984413E+00	4.899431E+01
	3.982983E+00	4.899311E+01
	3.982950E+00	4.899307E+01
	3.982995E+00	4.899294E+01
	3.982975E+00	4.899292E+01
	3.981860E+00	4.899212E+01
	3.981806E+00	4.899207E+01
	3.981829E+00	4.899202E+01
	3.981757E+00	4.899195E+01
	3.981586E+00	4.899184E+01
	3.980883E+00	4.899135E+01
	3.980869E+00	4.899133E+01
	3.980896E+00	4.899130E+01
	3.981011E+00	4.899125E+01
	3.980649E+00	4.899099E+01
	3.980633E+00	4.899097E+01
	3.980644E+00	4.899095E+01
	3.980795E+00	4.899085E+01
	3.980434E+00	4.899066E+01
	3.980096E+00	4.899047E+01
	3.980075E+00	4.899045E+01
	3.980086E+00	4.899041E+01
	3.979952E+00	4.899033E+01
	3.979627E+00	4.899018E+01
	3.979547E+00	4.899013E+01
	3.979037E+00	4.898967E+01
	3.979002E+00	4.898966E+01
	3.978928E+00	4.898969E+01
	3.978886E+00	4.898958E+01
	3.978392E+00	4.898922E+01
	3.978364E+00	4.898919E+01
	3.978235E+00	4.898911E+01
	3.978233E+00	4.898909E+01
	3.978169E+00	4.898904E+01
	3.978093E+00	4.898895E+01
	3.978006E+00	4.898876E+01
	3.977892E+00	4.898867E+01
	3.977694E+00	4.898856E+01
	3.977602E+00	4.898849E+01
	3.976834E+00	4.898761E+01
	3.976350E+00	4.898717E+01
	3.976191E+00	4.898704E+01
	3.976012E+00	4.898692E+01
END
END
