polygon
1
	2.521457E+00	4.272180E+01
	2.521863E+00	4.272162E+01
	2.522254E+00	4.272142E+01
	2.523740E+00	4.272051E+01
	2.524991E+00	4.272039E+01
	2.528008E+00	4.271816E+01
	2.528553E+00	4.271799E+01
	2.528875E+00	4.271807E+01
	2.529938E+00	4.271934E+01
	2.530716E+00	4.272012E+01
	2.531330E+00	4.271999E+01
	2.532266E+00	4.272004E+01
	2.533449E+00	4.272021E+01
	2.536792E+00	4.271910E+01
	2.539294E+00	4.271915E+01
	2.539572E+00	4.271972E+01
	2.540004E+00	4.272037E+01
	2.541205E+00	4.272135E+01
	2.541605E+00	4.272169E+01
	2.542842E+00	4.272204E+01
	2.544809E+00	4.272263E+01
	2.546307E+00	4.272277E+01
	2.547203E+00	4.272233E+01
	2.547419E+00	4.272231E+01
	2.547748E+00	4.272228E+01
	2.548600E+00	4.272236E+01
	2.549391E+00	4.272243E+01
	2.551742E+00	4.272298E+01
	2.554450E+00	4.272259E+01
	2.557814E+00	4.272304E+01
	2.560616E+00	4.272110E+01
	2.561186E+00	4.272162E+01
	2.562415E+00	4.272183E+01
	2.564528E+00	4.272256E+01
	2.565798E+00	4.272133E+01
	2.568047E+00	4.272139E+01
	2.569720E+00	4.272129E+01
	2.573246E+00	4.272189E+01
	2.573504E+00	4.272290E+01
	2.575103E+00	4.272394E+01
	2.575388E+00	4.272399E+01
	2.575779E+00	4.272400E+01
	2.576542E+00	4.272411E+01
	2.577502E+00	4.272422E+01
	2.577718E+00	4.272430E+01
	2.578264E+00	4.272464E+01
	2.578595E+00	4.272477E+01
	2.579103E+00	4.272491E+01
	2.579387E+00	4.272493E+01
	2.579541E+00	4.272491E+01
	2.579756E+00	4.272496E+01
	2.579856E+00	4.272499E+01
	2.580079E+00	4.272499E+01
	2.580233E+00	4.272506E+01
	2.580517E+00	4.272501E+01
	2.580793E+00	4.272505E+01
	2.581032E+00	4.272515E+01
	2.581232E+00	4.272520E+01
	2.581624E+00	4.272530E+01
	2.581724E+00	4.272537E+01
	2.582033E+00	4.272569E+01
	2.582099E+00	4.272572E+01
	2.582297E+00	4.272575E+01
	2.582431E+00	4.272579E+01
	2.582533E+00	4.272581E+01
	2.582827E+00	4.272583E+01
	2.583037E+00	4.272589E+01
	2.583328E+00	4.272622E+01
	2.583518E+00	4.272622E+01
	2.583633E+00	4.272632E+01
	2.583725E+00	4.272635E+01
	2.584072E+00	4.272642E+01
	2.584221E+00	4.272655E+01
	2.584267E+00	4.272658E+01
	2.584622E+00	4.272660E+01
	2.584649E+00	4.272680E+01
	2.584676E+00	4.272690E+01
	2.584848E+00	4.272700E+01
	2.584872E+00	4.272718E+01
	2.584883E+00	4.272723E+01
	2.584918E+00	4.272731E+01
	2.585113E+00	4.272758E+01
	2.585255E+00	4.272777E+01
	2.585294E+00	4.272799E+01
	2.585616E+00	4.272845E+01
	2.585977E+00	4.272888E+01
	2.586164E+00	4.272904E+01
	2.586424E+00	4.272927E+01
	2.586570E+00	4.272964E+01
	2.586857E+00	4.272979E+01
	2.587137E+00	4.273016E+01
	2.587649E+00	4.273046E+01
	2.587634E+00	4.273064E+01
	2.587768E+00	4.273066E+01
	2.588057E+00	4.273060E+01
	2.588199E+00	4.273071E+01
	2.588816E+00	4.273066E+01
	2.589018E+00	4.273058E+01
	2.589510E+00	4.273063E+01
	2.589716E+00	4.273070E+01
	2.589842E+00	4.273073E+01
	2.589929E+00	4.273074E+01
	2.590350E+00	4.273102E+01
	2.590355E+00	4.273130E+01
	2.590576E+00	4.273134E+01
	2.590987E+00	4.273209E+01
	2.590935E+00	4.273246E+01
	2.591096E+00	4.273269E+01
	2.591210E+00	4.273338E+01
	2.591233E+00	4.273343E+01
	2.591413E+00	4.273367E+01
	2.591360E+00	4.273376E+01
	2.591014E+00	4.273392E+01
	2.591034E+00	4.273412E+01
	2.591644E+00	4.273424E+01
	2.591947E+00	4.273470E+01
	2.591970E+00	4.273477E+01
	2.591959E+00	4.273486E+01
	2.591922E+00	4.273498E+01
	2.591843E+00	4.273526E+01
	2.591756E+00	4.273550E+01
	2.591715E+00	4.273566E+01
	2.591670E+00	4.273592E+01
	2.591644E+00	4.273606E+01
	2.591505E+00	4.273650E+01
	2.591152E+00	4.273679E+01
	2.590382E+00	4.273701E+01
	2.590239E+00	4.273741E+01
	2.590160E+00	4.273755E+01
	2.590046E+00	4.273771E+01
	2.589689E+00	4.273807E+01
	2.589386E+00	4.273840E+01
	2.589937E+00	4.273899E+01
	2.590407E+00	4.273926E+01
	2.590469E+00	4.273942E+01
	2.590207E+00	4.273986E+01
	2.589904E+00	4.274035E+01
	2.588811E+00	4.274140E+01
	2.587865E+00	4.274229E+01
	2.587526E+00	4.274319E+01
	2.586749E+00	4.274334E+01
	2.586715E+00	4.274358E+01
	2.586670E+00	4.274374E+01
	2.586743E+00	4.274392E+01
	2.586766E+00	4.274396E+01
	2.586904E+00	4.274412E+01
	2.586916E+00	4.274423E+01
	2.586944E+00	4.274442E+01
	2.586948E+00	4.274454E+01
	2.586922E+00	4.274462E+01
	2.586838E+00	4.274476E+01
	2.586862E+00	4.274492E+01
	2.586828E+00	4.274499E+01
	2.586767E+00	4.274507E+01
	2.586790E+00	4.274511E+01
	2.586832E+00	4.274516E+01
	2.586833E+00	4.274520E+01
	2.586787E+00	4.274527E+01
	2.586708E+00	4.274538E+01
	2.586613E+00	4.274546E+01
	2.586331E+00	4.274566E+01
	2.586141E+00	4.274569E+01
	2.585951E+00	4.274586E+01
	2.585909E+00	4.274592E+01
	2.585807E+00	4.274614E+01
	2.585606E+00	4.274639E+01
	2.585407E+00	4.274708E+01
	2.582967E+00	4.274629E+01
	2.582517E+00	4.274616E+01
	2.578043E+00	4.274667E+01
	2.577921E+00	4.274671E+01
	2.575697E+00	4.274746E+01
	2.574860E+00	4.274883E+01
	2.574534E+00	4.274935E+01
	2.573893E+00	4.275040E+01
	2.573692E+00	4.275072E+01
	2.573046E+00	4.275110E+01
	2.572559E+00	4.275148E+01
	2.571065E+00	4.275262E+01
	2.568728E+00	4.275437E+01
	2.568894E+00	4.275499E+01
	2.568764E+00	4.275509E+01
	2.568050E+00	4.275505E+01
	2.567875E+00	4.275510E+01
	2.567559E+00	4.275505E+01
	2.567368E+00	4.275509E+01
	2.567280E+00	4.275508E+01
	2.566937E+00	4.275505E+01
	2.566770E+00	4.275506E+01
	2.566585E+00	4.275510E+01
	2.566500E+00	4.275513E+01
	2.566204E+00	4.275528E+01
	2.565937E+00	4.275522E+01
	2.565742E+00	4.275530E+01
	2.565368E+00	4.275532E+01
	2.565235E+00	4.275535E+01
	2.565142E+00	4.275537E+01
	2.564680E+00	4.275540E+01
	2.564195E+00	4.275559E+01
	2.564047E+00	4.275561E+01
	2.563914E+00	4.275556E+01
	2.563337E+00	4.275560E+01
	2.563100E+00	4.275572E+01
	2.562764E+00	4.275579E+01
	2.562442E+00	4.275590E+01
	2.561810E+00	4.275611E+01
	2.556745E+00	4.275783E+01
	2.553743E+00	4.275891E+01
	2.547189E+00	4.275947E+01
	2.544813E+00	4.275955E+01
	2.544442E+00	4.275912E+01
	2.544434E+00	4.275818E+01
	2.545010E+00	4.275666E+01
	2.545415E+00	4.275515E+01
	2.545868E+00	4.275379E+01
	2.544399E+00	4.275234E+01
	2.544148E+00	4.275206E+01
	2.544142E+00	4.275193E+01
	2.544248E+00	4.275188E+01
	2.544372E+00	4.275178E+01
	2.544923E+00	4.275148E+01
	2.545758E+00	4.275087E+01
	2.546448E+00	4.275045E+01
	2.546709E+00	4.275043E+01
	2.546532E+00	4.275026E+01
	2.546270E+00	4.275001E+01
	2.546039E+00	4.274986E+01
	2.545754E+00	4.274972E+01
	2.545424E+00	4.274958E+01
	2.545293E+00	4.274950E+01
	2.545147E+00	4.274937E+01
	2.545062E+00	4.274928E+01
	2.544977E+00	4.274909E+01
	2.544891E+00	4.274880E+01
	2.544791E+00	4.274858E+01
	2.544435E+00	4.274798E+01
	2.544319E+00	4.274770E+01
	2.544311E+00	4.274754E+01
	2.544364E+00	4.274733E+01
	2.544592E+00	4.274657E+01
	2.544668E+00	4.274645E+01
	2.544974E+00	4.274623E+01
	2.545051E+00	4.274612E+01
	2.545173E+00	4.274592E+01
	2.545188E+00	4.274568E+01
	2.545272E+00	4.274560E+01
	2.545364E+00	4.274556E+01
	2.545432E+00	4.274541E+01
	2.545539E+00	4.274529E+01
	2.545654E+00	4.274524E+01
	2.546000E+00	4.274520E+01
	2.543972E+00	4.274054E+01
	2.542100E+00	4.273631E+01
	2.541597E+00	4.273514E+01
	2.541303E+00	4.273454E+01
	2.541028E+00	4.273455E+01
	2.539514E+00	4.273443E+01
	2.535957E+00	4.273141E+01
	2.534912E+00	4.273111E+01
	2.532518E+00	4.273140E+01
	2.531049E+00	4.273077E+01
	2.530178E+00	4.272937E+01
	2.529689E+00	4.272896E+01
	2.528607E+00	4.272804E+01
	2.527961E+00	4.272760E+01
	2.527729E+00	4.272708E+01
	2.525945E+00	4.272602E+01
	2.525161E+00	4.272564E+01
	2.524484E+00	4.272516E+01
	2.524030E+00	4.272480E+01
	2.522583E+00	4.272361E+01
	2.521457E+00	4.272180E+01
END
END
